405	0.00885095
406.185	0.0398675
407.37	0.0738837
408.555	0.104274
409.74	0.132378
410.925	0.157875
412.11	0.179706
413.295	0.199262
414.48	0.218513
415.665	0.231771
416.85	0.234803
418.035	0.239349
419.22	0.240198
420.405	0.236816
421.59	0.2309
422.775	0.221664
423.96	0.208855
425.145	0.189348
426.33	0.172327
427.515	0.157669
428.7	0.143203
429.885	0.127488
431.07	0.111159
432.255	0.095029
433.44	0.0772477
434.625	0.0586611
435.81	0.0427014
436.995	0.0365302
438.18	0.0271076
439.365	0.0194608
440.55	0.0143244
441.735	0.0091049
442.92	0.00663499
444.105	0.00475973
445.29	0.00211908
446.475	-0.00194259
447.66	-0.00288533
448.845	-0.00407559
450.03	-0.00669011
451.215	-0.00830783
452.4	-0.00792247
453.585	-0.0105657
454.77	-0.0104738
455.955	-0.00203641
457.14	0.00121118
458.325	0.0046487
459.51	0.0108571
460.695	0.0195379
461.88	0.0311338
463.065	0.0487673
464.25	0.0748943
465.435	0.105238
466.62	0.134737
467.805	0.166129
468.99	0.19575
470.175	0.226177
471.36	0.257753
472.545	0.291248
473.73	0.333004
474.915	0.380809
476.1	0.411973
477.285	0.459487
478.47	0.506764
479.655	0.54809
480.84	0.583659
482.025	0.616791
483.21	0.647258
484.395	0.668028
485.58	0.679311
486.765	0.686462
487.95	0.690226
489.135	0.695527
490.32	0.697683
491.505	0.692612
492.69	0.681981
493.875	0.665215
495.06	0.63659
496.245	0.616741
497.43	0.57837
498.615	0.549148
499.8	0.521443
500.985	0.494183
502.17	0.461561
503.355	0.423809
504.54	0.38809
505.725	0.358788
506.91	0.331448
508.095	0.304403
509.28	0.272335
510.465	0.242938
511.65	0.218396
512.835	0.196758
514.02	0.178777
515.205	0.164945
516.39	0.1522
517.575	0.13896
518.76	0.126756
519.945	0.115931
521.13	0.104899
522.315	0.0994818
523.5	0.0938379
524.685	0.0906259
525.87	0.0894764
527.055	0.0861488
528.24	0.0857166
529.425	0.0915711
530.61	0.0923014
531.794	0.0958662
532.98	0.0976908
534.165	0.104013
535.35	0.110086
536.535	0.115613
537.719	0.120906
538.905	0.122102
540.09	0.122487
541.274	0.130091
542.46	0.138752
543.644	0.145323
544.829	0.150327
546.015	0.155866
547.199	0.159687
548.384	0.160334
549.57	0.161038
550.754	0.164151
551.94	0.161824
553.124	0.160985
554.309	0.154018
555.495	0.149978
556.679	0.146882
557.864	0.141289
559.049	0.138379
560.234	0.136583
561.419	0.130602
562.604	0.124959
563.789	0.127149
564.974	0.115539
566.159	0.11568
567.344	0.115624
568.529	0.116777
569.714	0.115236
570.899	0.114931
572.084	0.117085
573.269	0.118723
574.454	0.118029
575.639	0.114658
576.824	0.110583
578.009	0.116334
579.194	0.112009
580.379	0.109473
581.564	0.107462
582.749	0.102367
583.934	0.101751
585.119	0.103389
586.304	0.0961811
587.489	0.0867699
588.674	0.0844139
589.859	0.0842012
591.044	0.0848438
592.229	0.079036
593.414	0.0750393
594.599	0.0766818
595.784	0.0772045
596.969	0.0719722
598.154	0.0677936
599.339	0.0696946
600.524	0.0640032
601.709	0.0606494
602.894	0.0541897
604.079	0.0463995
605.264	0.0433411
606.449	0.044632
607.634	0.0435294
608.819	0.0416784
610.004	0.0395943
611.189	0.0374252
612.374	0.0387825
613.559	0.0391857
614.744	0.0377659
615.929	0.0363846
617.114	0.0343818
618.299	0.0265311
619.484	0.0257289
620.669	0.0238603
621.854	0.0260768
623.039	0.0321691
624.224	0.0324435
625.409	0.0269076
626.594	0.0257878
627.779	0.0247866
628.964	0.0168785
630.149	0.0197831
631.334	0.0167871
632.519	0.013683
633.704	0.0127385
634.889	0.0128174
636.074	0.0148374
637.259	0.019647
638.444	0.0234113
639.629	0.0233642
640.814	0.0298188
641.999	0.0282014
643.184	0.0270038
644.369	0.0353682
645.554	0.0384709
646.739	0.038323
647.924	0.0434336
649.109	0.047454
650.294	0.050367
651.479	0.0555967
652.664	0.0590563
653.849	0.0642773
655.034	0.0711264
656.219	0.0788137
657.404	0.0836506
658.589	0.0948247
659.774	0.102497
660.959	0.110522
662.144	0.119681
663.329	0.127209
664.514	0.135012
665.699	0.145201
666.884	0.154981
668.069	0.164192
669.254	0.17389
670.439	0.187859
671.624	0.199776
672.809	0.204465
673.994	0.2104
675.179	0.213733
676.364	0.217258
677.549	0.217764
678.734	0.213952
679.919	0.209472
681.104	0.2061
682.289	0.201817
683.474	0.19734
684.659	0.194215
685.844	0.182795
687.029	0.173103
688.214	0.162485
689.399	0.148891
690.584	0.135512
691.769	0.122249
692.954	0.113614
694.139	0.105485
695.324	0.0939557
696.509	0.0841665
697.694	0.0746459
698.879	0.0651442
700.064	0.0593411
701.249	0.052805
702.434	0.0519719
703.619	0.0457564
704.804	0.0452319
705.989	0.0394663
707.174	0.0379938
708.359	0.0379719
709.544	0.0378888
710.729	0.0386449
711.914	0.0333953
713.099	0.0232701
714.284	0.0232447
715.469	0.0228672
716.654	0.0180775
717.839	0.0158423
719.024	0.0151361
720.209	0.0136366
721.394	0.0121548
722.579	0.00769616
723.764	0.00399906
724.949	0.00499528
726.134	0.00412561
727.319	-0.00139467
728.504	-0.00486121
729.689	-0.00686391
730.874	-0.000859265
732.059	0.00183035
733.244	0.00220856
734.429	0.00188439
735.614	0.00432638
736.799	0.0124458
737.984	0.0124834
739.169	0.0143903
740.354	0.0158977
741.539	0.0170698
742.724	0.0198297
743.909	0.0223699
745.094	0.0222784
746.279	0.020278
747.464	0.0226002
748.649	0.0233907
749.834	0.0199993
751.019	0.0239409
752.204	0.0215921
753.389	0.0194141
754.574	0.0245792
755.759	0.0236903
756.944	0.0252344
758.129	0.0272832
759.314	0.0233465
760.499	0.0220266
761.684	0.0267792
762.869	0.0271156
764.054	0.0268464
765.239	0.0291795
766.424	0.0264695
767.609	0.0249088
768.794	0.0248637
769.979	0.0291277
771.164	0.0339248
772.349	0.0365121
773.534	0.0368255
774.719	0.0392001
775.904	0.0400294
777.089	0.0410194
778.274	0.0457798
779.459	0.0489676
780.644	0.0467974
781.829	0.0451833
783.014	0.0457951
784.199	0.0526685
785.384	0.060854
786.569	0.059553
787.754	0.0624547
788.939	0.0597603
790.124	0.0632829
791.309	0.0645268
792.494	0.0648175
793.679	0.0644915
794.864	0.0654927
796.049	0.0650271
797.234	0.0644658
798.419	0.0660765
799.604	0.0694393
800.789	0.0768493
801.974	0.0880561
803.159	0.0953543
804.344	0.102688
805.529	0.121444
806.714	0.141259
807.899	0.159037
809.084	0.179684
810.269	0.204414
811.453	0.228338
812.639	0.257143
813.824	0.283371
815.008	0.309704
816.194	0.339201
817.379	0.368111
818.563	0.392493
819.749	0.412132
820.933	0.428156
822.118	0.441032
823.304	0.449812
824.488	0.453345
825.674	0.45411
826.858	0.458573
828.043	0.456833
829.229	0.459094
830.413	0.465069
831.598	0.463315
832.784	0.468056
833.968	0.477974
835.153	0.48995
836.338	0.505202
837.523	0.52402
838.708	0.547107
839.893	0.576744
841.078	0.614082
842.263	0.659297
843.448	0.707854
844.633	0.749857
845.818	0.786694
847.003	0.824247
848.188	0.85513
849.373	0.880466
850.558	0.90622
851.743	0.929268
852.928	0.940148
854.113	0.944752
855.298	0.948225
856.483	0.946336
857.668	0.936461
858.853	0.923326
860.038	0.903194
861.223	0.869784
862.408	0.832486
863.593	0.801964
864.778	0.773924
865.963	0.742428
867.148	0.708831
868.333	0.675511
869.518	0.644858
870.703	0.609235
871.888	0.573896
873.073	0.537273
874.258	0.498242
875.443	0.469442
876.628	0.438738
877.813	0.40343
878.998	0.372822
880.183	0.352679
881.368	0.330619
882.553	0.305799
883.738	0.279752
884.923	0.254594
886.108	0.238222
887.293	0.220684
888.478	0.205993
889.663	0.198635
890.848	0.194528
892.033	0.192744
893.218	0.190975
894.403	0.190667
895.588	0.195308
896.773	0.200375
897.958	0.205492
899.143	0.213689
900.328	0.22323
901.513	0.230668
902.698	0.243097
903.883	0.257591
905.068	0.270816
906.253	0.287456
907.438	0.300886
908.623	0.314304
909.808	0.326108
910.993	0.338263
912.178	0.347203
913.363	0.357934
914.548	0.369105
915.733	0.381212
916.918	0.390028
918.103	0.397326
919.288	0.407182
920.473	0.416326
921.658	0.425879
922.843	0.433175
924.028	0.429308
925.213	0.42436
926.398	0.420399
927.583	0.413198
928.768	0.405042
929.953	0.399553
931.138	0.391125
932.323	0.374644
933.508	0.356903
934.693	0.331913
935.878	0.315238
937.063	0.295918
938.248	0.272906
939.433	0.250049
940.618	0.224151
941.803	0.202029
942.988	0.187262
944.173	0.170189
945.358	0.156796
946.543	0.144864
947.728	0.131007
948.913	0.118432
950.098	0.108798
951.283	0.102044
952.468	0.0999001
953.653	0.0981745
954.838	0.0947617
956.023	0.0950733
957.208	0.100427
958.393	0.105876
959.578	0.10793
960.763	0.115291
961.948	0.126522
963.133	0.134875
964.318	0.142682
965.503	0.15499
966.688	0.171391
967.873	0.177992
969.058	0.188766
970.243	0.201248
971.428	0.210607
972.613	0.220918
973.798	0.228122
974.983	0.235761
976.168	0.23886
977.353	0.245563
978.538	0.251708
979.723	0.249663
980.908	0.245588
982.093	0.246046
983.278	0.251667
984.463	0.246095
985.648	0.242239
986.833	0.236084
988.018	0.230081
989.203	0.224405
990.388	0.221225
991.573	0.218767
992.758	0.213086
993.943	0.209515
995.128	0.21149
996.313	0.215947
997.498	0.221221
998.683	0.227688
999.868	0.230165
1001.05	0.223572
1002.24	0.21812
1003.42	0.218723
1004.61	0.219348
1005.79	0.221095
1006.98	0.216719
1008.16	0.21226
1009.35	0.211712
1010.53	0.21255
1011.72	0.216119
1012.9	0.214567
1014.09	0.211593
1015.27	0.21028
1016.46	0.210644
1017.64	0.211081
1018.83	0.219333
1020.01	0.223511
1021.2	0.234273
1022.38	0.245741
1023.57	0.256917
1024.75	0.272437
1025.94	0.297474
1027.12	0.314796
1028.31	0.333952
1029.49	0.350656
1030.68	0.367178
1031.86	0.388457
1033.05	0.413971
1034.23	0.440588
1035.42	0.466214
1036.6	0.489821
1037.79	0.522174
1038.97	0.54939
1040.16	0.578445
1041.34	0.602585
1042.53	0.624086
1043.71	0.644411
1044.9	0.664052
1046.08	0.686378
1047.27	0.709038
1048.45	0.731034
1049.64	0.748562
1050.82	0.757181
1052.01	0.761003
1053.19	0.767523
1054.38	0.772312
1055.56	0.769928
1056.75	0.764958
1057.93	0.764112
1059.12	0.764705
1060.3	0.762087
1061.49	0.757994
1062.67	0.750202
1063.86	0.735805
1065.04	0.721069
1066.23	0.708689
1067.41	0.696075
1068.6	0.684421
1069.78	0.673103
1070.97	0.657871
1072.15	0.642691
1073.34	0.630905
1074.52	0.61625
1075.71	0.597901
1076.89	0.575411
1078.08	0.561869
1079.26	0.550291
1080.45	0.532257
1081.63	0.519585
1082.82	0.507348
1084	0.495029
1085.19	0.484543
1086.37	0.474433
1087.56	0.463733
1088.74	0.453027
1089.93	0.447296
1091.11	0.441535
1092.3	0.436398
1093.48	0.432843
1094.67	0.429841
1095.85	0.425502
1097.04	0.418627
1098.22	0.41869
1099.41	0.41747
1100.59	0.416535
1101.78	0.41598
1102.96	0.411855
1104.15	0.410421
1105.33	0.4109
1106.52	0.408861
1107.7	0.407289
1108.89	0.402106
1110.07	0.404599
1111.26	0.40262
1112.44	0.40216
1113.63	0.401867
1114.81	0.397928
1116	0.391741
1117.18	0.385386
1118.37	0.37234
1119.55	0.361183
1120.74	0.348419
1121.92	0.328712
1123.11	0.306858
1124.29	0.290484
1125.48	0.270705
1126.66	0.255778
1127.85	0.233861
1129.03	0.210722
1130.22	0.189104
1131.4	0.168561
1132.59	0.149593
1133.77	0.131133
1134.96	0.113897
1136.14	0.101213
1137.33	0.0868744
1138.51	0.0716873
1139.7	0.0606419
1140.88	0.0541056
1142.07	0.0481453
1143.25	0.043076
1144.44	0.0339511
1145.62	0.0262563
1146.81	0.0222056
1147.99	0.0201705
1149.18	0.019346
1150.36	0.0178653
1151.55	0.0162379
1152.73	0.0123306
1153.92	0.0126431
1155.1	0.0129695
1156.29	0.015356
1157.47	0.018553
1158.66	0.0176189
1159.84	0.0141153
1161.03	0.00990128
1162.21	0.00825577
1163.4	0.00806519
1164.58	0.0093678
1165.77	0.00907969
1166.95	0.00652366
1168.14	0.00491001
1169.32	0.00732098
1170.51	0.00922048
1171.69	0.00446195
1172.88	5.35157e-005
1174.06	-0.00281437
1175.25	-0.00466026
1176.43	-0.00371345
1177.62	-0.00206031
1178.8	-0.000739297
1179.99	0.000839291
1181.17	0.00259842
1182.36	0.00267088
1183.54	0.006958
1184.73	0.0132866
1185.91	0.0156191
1187.1	0.0150775
1188.28	0.0177714
1189.47	0.0236745
1190.65	0.031906
1191.84	0.0401644
1193.02	0.0445588
1194.21	0.0513697
1195.39	0.0574524
1196.58	0.0654216
1197.76	0.070223
1198.95	0.0740793
1200.13	0.0800547
1201.32	0.0812855
1202.5	0.0837589
1203.69	0.0898499
1204.87	0.0943653
1206.06	0.101994
1207.24	0.10691
1208.43	0.109638
1209.61	0.114162
1210.8	0.114208
1211.98	0.112809
1213.17	0.114585
1214.35	0.117655
1215.54	0.121481
1216.72	0.125829
1217.91	0.123093
1219.09	0.121126
1220.28	0.11837
1221.46	0.118667
1222.65	0.122179
1223.83	0.125267
1225.02	0.128636
1226.2	0.126073
1227.39	0.130125
1228.57	0.137824
1229.76	0.143355
1230.94	0.147308
1232.13	0.149402
1233.31	0.153545
1234.5	0.154517
1235.68	0.161562
1236.87	0.168076
1238.05	0.174074
1239.24	0.180055
1240.42	0.185738
1241.61	0.190388
1242.79	0.199181
1243.98	0.207667
1245.16	0.211852
1246.35	0.217382
1247.53	0.222907
1248.72	0.228401
1249.9	0.233087
1251.09	0.240079
1252.27	0.246341
1253.46	0.249224
1254.64	0.253366
1255.83	0.258104
1257.01	0.260109
1258.2	0.258307
1259.38	0.255576
1260.57	0.252251
1261.75	0.255485
1262.94	0.257484
1264.12	0.251252
1265.31	0.245974
1266.49	0.239569
1267.68	0.237265
1268.86	0.234192
1270.05	0.23532
1271.23	0.236543
1272.42	0.234203
1273.6	0.22975
1274.79	0.230153
1275.97	0.229777
1277.16	0.227743
1278.34	0.223118
1279.53	0.21463
1280.71	0.21589
1281.9	0.215413
1283.08	0.215482
1284.27	0.214083
1285.45	0.210938
1286.64	0.208059
1287.82	0.20093
1289.01	0.193973
1290.19	0.191146
1291.38	0.188847
1292.56	0.185769
1293.75	0.183531
1294.93	0.183473
1296.12	0.1863
1297.3	0.183186
1298.49	0.184923
1299.67	0.183686
1300.86	0.183287
1302.04	0.188143
1303.23	0.184189
1304.41	0.184007
1305.6	0.185494
1306.78	0.186648
1307.97	0.186474
1309.15	0.187807
1310.34	0.187437
1311.52	0.188215
1312.71	0.188726
1313.89	0.186606
1315.08	0.182959
1316.26	0.180746
1317.45	0.180966
1318.63	0.1769
1319.82	0.174387
1321	0.174351
1322.19	0.174872
1323.37	0.176562
1324.56	0.177042
1325.74	0.172886
1326.93	0.173051
1328.11	0.17238
1329.3	0.168566
1330.48	0.165229
1331.67	0.167082
1332.85	0.16694
1334.04	0.166044
1335.22	0.166012
1336.41	0.168117
1337.59	0.170524
1338.78	0.171793
1339.96	0.172143
1341.15	0.170996
1342.33	0.17036
1343.52	0.16883
1344.7	0.165232
1345.89	0.166788
1347.07	0.17082
1348.26	0.174092
1349.44	0.17734
1350.63	0.177663
1351.81	0.174653
1353	0.171474
1354.18	0.16751
1355.37	0.166241
1356.55	0.164363
1357.74	0.160125
1358.92	0.160904
1360.11	0.161204
1361.29	0.162659
1362.48	0.158661
1363.66	0.155402
1364.85	0.149097
1366.03	0.14377
1367.22	0.139233
1368.4	0.143739
1369.59	0.145373
1370.77	0.14635
1371.96	0.145795
1373.14	0.144189
1374.33	0.14767
1375.51	0.149689
1376.7	0.147273
1377.88	0.147392
1379.07	0.152191
1380.25	0.153057
1381.44	0.155026
1382.62	0.153569
1383.81	0.154584
1384.99	0.147642
1386.18	0.147652
1387.36	0.145395
1388.55	0.147422
1389.73	0.149572
1390.92	0.147512
1392.1	0.146223
1393.29	0.144872
1394.47	0.144732
1395.66	0.138919
1396.84	0.133321
1398.03	0.131139
1399.21	0.13209
1400.4	0.134011
1401.58	0.136132
1402.77	0.135427
1403.95	0.138927
1405.14	0.13866
1406.32	0.134152
1407.51	0.133752
1408.69	0.128386
1409.88	0.131045
1411.06	0.129634
1412.25	0.134526
1413.43	0.139772
1414.62	0.140311
1415.8	0.138489
1416.99	0.13549
1418.17	0.135035
1419.36	0.135289
1420.54	0.133082
1421.73	0.132324
1422.91	0.132856
1424.1	0.13331
1425.28	0.135515
1426.47	0.132351
1427.65	0.131264
1428.84	0.130139
1430.02	0.126438
1431.21	0.126853
1432.39	0.127098
1433.58	0.12938
1434.76	0.133384
1435.95	0.137694
1437.13	0.14321
1438.32	0.146926
1439.5	0.152817
1440.69	0.161845
1441.87	0.169291
1443.06	0.176851
1444.24	0.193214
1445.43	0.204139
1446.61	0.218673
1447.8	0.235619
1448.98	0.258958
1450.17	0.279356
1451.35	0.299136
1452.54	0.316396
1453.72	0.331789
1454.91	0.35029
1456.09	0.368173
1457.28	0.387149
1458.46	0.404593
1459.65	0.424883
1460.83	0.435445
1462.02	0.447383
1463.2	0.45707
1464.39	0.457811
1465.57	0.454228
1466.76	0.451561
1467.94	0.446586
1469.13	0.439018
1470.31	0.431816
1471.5	0.422974
1472.68	0.407534
1473.87	0.386383
1475.05	0.368599
1476.24	0.345826
1477.42	0.324893
1478.61	0.295467
1479.79	0.272651
1480.98	0.253972
1482.16	0.23162
1483.35	0.209877
1484.53	0.186861
1485.72	0.167284
1486.9	0.147773
1488.09	0.125825
1489.27	0.110602
1490.46	0.0970919
1491.64	0.080075
1492.83	0.0693387
1494.01	0.0581428
1495.2	0.0541113
1496.38	0.0442045
1497.57	0.0380154
1498.75	0.0340403
1499.94	0.029935
1501.12	0.0284148
1502.31	0.0236521
1503.49	0.0185053
1504.68	0.0189711
1505.86	0.0173048
1507.05	0.0150475
1508.23	0.0176894
1509.42	0.0140506
1510.6	0.0131111
1511.79	0.0110629
1512.97	0.00979132
1514.16	0.00647959
1515.34	0.00375501
1516.53	-0.000381932
1517.71	-0.00554889
1518.9	-0.00162009
1520.08	0.00153029
1521.27	-0.00280825
1522.45	0.000282438
1523.64	0.000412236
1524.82	0.00186922
1526.01	0.000792124
1527.19	-0.000250946
1528.38	0.000743485
1529.56	0.00214345
1530.75	0.00290807
1531.93	0.00222642
1533.12	0.00403555
1534.3	0.0077237
1535.49	0.00183436
1536.67	-0.00189677
1537.86	0.000290193
1539.04	-0.00183219
1540.23	-0.00132015
1541.41	-0.00579367
1542.6	-0.00462956
1543.78	-0.00410595
1544.97	-0.00338346
1546.15	-0.00341016
1547.34	-0.00178438
1548.52	0.000738341
1549.71	0.00244148
1550.89	0.00145315
1552.08	0.00220529
1553.26	0.00220887
1554.45	0.00156089
1555.63	0.00146832
1556.82	0.00116576
1558	0.00093388
1559.19	0.00250225
1560.37	0.00306794
1561.56	0.00336102
1562.74	0.00275273
1563.93	0.00492125
1565.11	0.00423701
1566.3	0.00307745
1567.48	0.00194952
1568.67	0.00308258
1569.85	0.00356571
1571.04	0.00275769
1572.22	0.00113866
1573.41	0.00172211
1574.59	0.00196902
1575.78	0.00146902
1576.96	-0.00113832
1578.15	-0.00135583
1579.33	-0.00106913
1580.52	-0.0024676
1581.7	-0.00271323
1582.89	-0.00369212
1584.07	-0.00242928
1585.26	-0.00202281
1586.44	-0.000665775
1587.63	-0.00286671
1588.81	-0.000959231
1590	-0.000834908
1591.18	-0.000983397
1592.37	0.000871833
1593.55	0.00304833
1594.74	0.00161836
1595.92	-0.00103111
1597.11	-0.0014032
1598.29	-0.000437331
1599.48	-0.000428927
1600.66	-0.00147679
1601.85	0.00035707
1603.03	0.00180519
1604.22	0.00494152
1605.4	0.00798341
1606.59	0.0103658
1607.77	0.0132261
1608.96	0.0132377
1610.14	0.013325
1611.33	0.0173829
1612.51	0.0223298
1613.7	0.0233009
1614.88	0.0251131
1616.07	0.0272584
1617.25	0.0283058
1618.44	0.029185
1619.62	0.028758
1620.81	0.0262363
1621.99	0.0269514
1623.18	0.0269454
1624.36	0.0256003
1625.55	0.0266761
1626.73	0.0278261
1627.92	0.0265182
1629.1	0.0217763
1630.29	0.0202088
1631.47	0.0185069
1632.66	0.0190487
1633.84	0.0187847
1635.03	0.0217729
1636.21	0.0214838
1637.4	0.0214935
1638.58	0.0207569
1639.77	0.0223271
1640.95	0.0243888
1642.14	0.0258877
1643.32	0.025872
1644.51	0.0291614
1645.69	0.0331145
1646.88	0.0376138
1648.06	0.0383373
1649.25	0.0387166
1650.43	0.0383724
1651.62	0.0421146
1652.8	0.0401623
1653.99	0.0386284
1655.17	0.0384128
1656.36	0.0405584
1657.54	0.041179
1658.73	0.0444287
1659.91	0.0463507
1661.1	0.0440627
1662.28	0.044286
1663.47	0.0458143
1664.65	0.0486272
1665.84	0.0492414
1667.02	0.0484768
1668.21	0.048134
1669.39	0.0516125
1670.58	0.0549504
1671.76	0.0530671
1672.95	0.0512588
1674.13	0.0497631
1675.32	0.0469104
1676.5	0.0507386
1677.69	0.0529227
1678.87	0.0494792
1680.06	0.0460765
1681.24	0.0458268
1682.43	0.0452519
1683.61	0.0473518
1684.8	0.048979
1685.98	0.0477577
1687.17	0.0467816
1688.35	0.0463569
1689.54	0.0443073
1690.72	0.0424176
1691.91	0.041436
1693.09	0.0398608
1694.28	0.0382817
1695.46	0.038824
1696.65	0.0375018
1697.83	0.0365344
1699.02	0.0353854
1700.2	0.0311441
1701.39	0.0258481
1702.57	0.0231956
1703.76	0.0194535
1704.94	0.0172357
1706.13	0.0199512
1707.31	0.0202154
1708.5	0.0189781
1709.68	0.0187196
1710.87	0.0202301
1712.05	0.0183811
1713.24	0.0159561
1714.42	0.0157915
1715.61	0.0174104
1716.79	0.0171908
1717.98	0.0186003
1719.16	0.0181929
1720.35	0.0212693
1721.53	0.0209937
1722.72	0.0206693
1723.9	0.0199306
1725.09	0.0211464
1726.27	0.0208418
1727.46	0.0219706
1728.64	0.0278078
1729.83	0.0279515
1731.01	0.0255923
1732.2	0.0261406
1733.38	0.0285264
1734.57	0.0305154
1735.75	0.0322485
1736.94	0.0348543
1738.12	0.0303577
1739.31	0.0273106
1740.49	0.0271958
1741.68	0.024432
1742.86	0.0237854
1744.05	0.0235764
1745.23	0.0230049
1746.42	0.0235394
1747.6	0.0257985
1748.79	0.0244864
1749.97	0.0256565
1751.16	0.0239789
1752.34	0.0222836
1753.53	0.0224667
1754.71	0.0251069
1755.9	0.0257695
1757.08	0.02491
1758.27	0.0239866
1759.45	0.0196093
1760.64	0.016919
1761.82	0.0152107
1763.01	0.0141749
1764.19	0.010912
1765.38	0.00631266
1766.56	0.00418541
1767.74	0.00491228
1768.93	0.00336033
1770.12	0.0038117
1771.3	0.00261171
1772.49	0.00122029
1773.67	0.000126061
1774.85	0.000105155
1776.04	-0.00149662
1777.23	0.00106188
1778.41	0.00125768
1779.6	0.000607502
1780.78	0.000803215
1781.97	0.00218962
1783.15	0.00151332
1784.34	0.00178425
1785.52	3.70594e-005
1786.7	-0.001021
1787.89	-0.000881537
1789.08	-0.00105764
1790.26	-0.000269379
1791.45	-0.000427156
1792.63	-0.00200975
1793.81	-0.00441378
1795	-0.00540952
