405	0.0510349
406.185	0.0733641
407.37	0.100281
408.555	0.127324
409.74	0.1514
410.925	0.170723
412.11	0.186221
413.295	0.201193
414.48	0.216622
415.665	0.222746
416.85	0.231772
418.035	0.237348
419.22	0.238339
420.405	0.236901
421.59	0.233173
422.775	0.224413
423.96	0.21181
425.145	0.207273
426.33	0.188157
427.515	0.170247
428.7	0.153758
429.885	0.135895
431.07	0.117158
432.255	0.0993489
433.44	0.0799272
434.625	0.0627053
435.81	0.0530187
436.995	0.0431802
438.18	0.0375341
439.365	0.0338259
440.55	0.0268797
441.735	0.0170224
442.92	0.0105459
444.105	0.00155092
445.29	0.00283098
446.475	0.00801537
447.66	0.00991488
448.845	0.00403184
450.03	0.00384245
451.215	0.012773
452.4	0.0212856
453.585	0.0341579
454.77	0.0409463
455.955	0.0474994
457.14	0.057366
458.325	0.067755
459.51	0.0789912
460.695	0.0970024
461.88	0.123547
463.065	0.151855
464.25	0.180158
465.435	0.203032
466.62	0.227374
467.805	0.265032
468.99	0.307085
470.175	0.346144
471.36	0.387977
472.545	0.435053
473.73	0.475641
474.915	0.526621
476.1	0.57202
477.285	0.616653
478.47	0.658582
479.655	0.702425
480.84	0.740543
482.025	0.77126
483.21	0.801608
484.395	0.832199
485.58	0.853128
486.765	0.864665
487.95	0.87566
489.135	0.889409
490.32	0.896255
491.505	0.886465
492.69	0.870217
493.875	0.856158
495.06	0.827156
496.245	0.799127
497.43	0.758465
498.615	0.723187
499.8	0.686854
500.985	0.653926
502.17	0.61811
503.355	0.579956
504.54	0.546131
505.725	0.518191
506.91	0.500274
508.095	0.470103
509.28	0.431539
510.465	0.400344
511.65	0.376571
512.835	0.354902
514.02	0.334828
515.205	0.318864
516.39	0.307584
517.575	0.30095
518.76	0.300653
519.945	0.298681
521.13	0.288967
522.315	0.281577
523.5	0.273167
524.685	0.265357
525.87	0.257229
527.055	0.246406
528.24	0.240286
529.425	0.244049
530.61	0.25282
531.795	0.252107
532.98	0.245233
534.164	0.245335
535.35	0.255025
536.535	0.265764
537.719	0.268563
538.905	0.262104
540.09	0.251587
541.274	0.250898
542.46	0.259298
543.644	0.264146
544.829	0.267424
546.015	0.272019
547.199	0.27696
548.385	0.275387
549.569	0.266651
550.754	0.262225
551.94	0.268309
553.124	0.282839
554.309	0.287548
555.495	0.281648
556.679	0.266808
557.864	0.259489
559.049	0.259241
560.234	0.262962
561.419	0.264035
562.604	0.254967
563.789	0.254893
564.974	0.25267
566.159	0.251621
567.344	0.239591
568.529	0.243058
569.714	0.241626
570.899	0.238954
572.084	0.231431
573.269	0.219078
574.454	0.215428
575.639	0.212545
576.824	0.231168
578.009	0.234173
579.194	0.241003
580.379	0.234498
581.564	0.238054
582.749	0.240173
583.934	0.235578
585.119	0.228092
586.304	0.224172
587.489	0.230577
588.674	0.221742
589.859	0.214135
591.044	0.211719
592.229	0.205611
593.414	0.202256
594.599	0.197891
595.784	0.188263
596.969	0.176255
598.154	0.166232
599.339	0.158776
600.524	0.154639
601.709	0.147775
602.894	0.141517
604.079	0.141684
605.264	0.139266
606.449	0.128052
607.634	0.126212
608.819	0.13516
610.004	0.141062
611.189	0.14347
612.374	0.151918
613.559	0.149032
614.744	0.149707
615.929	0.152233
617.114	0.153906
618.299	0.156418
619.484	0.158915
620.669	0.154876
621.854	0.151995
623.039	0.149966
624.224	0.146936
625.409	0.149152
626.594	0.146815
627.779	0.13524
628.964	0.12443
630.149	0.117489
631.334	0.10801
632.519	0.106591
633.704	0.108334
634.889	0.10606
636.074	0.102141
637.259	0.0957872
638.444	0.0860254
639.629	0.0861948
640.814	0.0917534
641.999	0.0871572
643.184	0.094123
644.369	0.0935984
645.554	0.0963737
646.739	0.0988798
647.924	0.100095
649.109	0.100037
650.294	0.102403
651.479	0.102955
652.664	0.0925059
653.849	0.0816794
655.034	0.0773641
656.219	0.0778627
657.404	0.0909241
658.589	0.0992419
659.774	0.10878
660.959	0.120789
662.144	0.124344
663.329	0.127602
664.514	0.138827
665.699	0.150424
666.884	0.15589
668.069	0.164481
669.254	0.176624
670.439	0.181306
671.624	0.193864
672.809	0.215503
673.994	0.232865
675.179	0.247646
676.364	0.252075
677.549	0.245283
678.734	0.235811
679.919	0.228278
681.104	0.222025
682.289	0.217433
683.474	0.205288
684.659	0.188777
685.844	0.18164
687.029	0.173241
688.214	0.154298
689.399	0.142813
690.584	0.131924
691.769	0.116512
692.954	0.100663
694.139	0.0878639
695.324	0.0759502
696.509	0.0647918
697.694	0.0609865
698.879	0.0636148
700.064	0.0599644
701.249	0.0648427
702.434	0.062621
703.619	0.0630216
704.804	0.0650244
705.989	0.063993
707.174	0.0697809
708.359	0.075368
709.544	0.0754299
710.729	0.0734097
711.914	0.0710113
713.099	0.0684062
714.284	0.0633703
715.469	0.0620661
716.654	0.0599313
717.839	0.0387335
719.024	0.036625
720.209	0.0320893
721.394	0.0278135
722.579	0.0246913
723.764	0.0211455
724.949	0.0169158
726.134	0.00973494
727.319	0.00374362
728.504	0.00418353
729.689	0.00163547
730.874	0.00330938
732.059	0.00217679
733.244	0.000701523
734.429	0.0145198
735.614	0.0175839
736.799	0.0199286
737.984	0.0192442
739.169	0.0148502
740.354	0.0163441
741.539	0.0194681
742.724	0.0202708
743.909	0.0199614
745.094	0.0212188
746.279	0.0270057
747.464	0.0236468
748.649	0.0358783
749.834	0.0415711
751.019	0.0439215
752.204	0.0406123
753.389	0.0307136
754.574	0.0305737
755.759	0.0343751
756.944	0.0324885
758.129	0.0331924
759.314	0.0381835
760.499	0.0416894
761.684	0.0428844
762.869	0.0447312
764.054	0.0467238
765.239	0.0421834
766.424	0.0348122
767.609	0.0236703
768.794	0.0132938
769.979	0.00881967
771.164	0.0106505
772.349	0.01197
773.534	0.0169643
774.719	0.0217801
775.904	0.0229936
777.089	0.0229568
778.274	0.0221552
779.459	0.0229845
780.644	0.0258333
781.829	0.0247735
783.014	0.0224032
784.199	0.0179801
785.384	0.0183972
786.569	0.0251257
787.754	0.0299592
788.939	0.0283764
790.124	0.0295905
791.309	0.0223517
792.494	0.0164315
793.679	0.00944737
794.864	0.0067091
796.049	0.0019373
797.234	-0.00399104
798.419	-0.00910859
799.604	-0.0105657
800.789	-0.00273914
801.974	0.00659506
803.159	0.0201066
804.344	0.0336405
805.529	0.0409711
806.714	0.0539349
807.899	0.0745122
809.084	0.0918164
810.269	0.123433
811.454	0.150058
812.639	0.180631
813.823	0.210685
815.009	0.241284
816.194	0.268107
817.378	0.294194
818.564	0.316627
819.748	0.336141
820.933	0.356817
822.119	0.369387
823.303	0.378419
824.488	0.380693
825.674	0.389188
826.858	0.394271
828.044	0.400813
829.228	0.400748
830.413	0.407158
831.599	0.411446
832.783	0.4201
833.968	0.432852
835.153	0.445911
836.338	0.46401
837.523	0.493088
838.708	0.525684
839.893	0.560305
841.078	0.599321
842.263	0.644999
843.448	0.693842
844.633	0.734625
845.818	0.779478
847.003	0.816427
848.188	0.853844
849.373	0.879034
850.558	0.904401
851.743	0.925495
852.928	0.934836
854.113	0.948225
855.298	0.940509
856.483	0.928662
857.668	0.912538
858.853	0.897755
860.038	0.879923
861.223	0.853318
862.408	0.819884
863.593	0.782034
864.778	0.742834
865.963	0.704498
867.148	0.668159
868.333	0.633562
869.518	0.592516
870.703	0.555799
871.888	0.528744
873.073	0.49067
874.258	0.457905
875.443	0.428269
876.628	0.394559
877.813	0.358284
878.998	0.330042
880.183	0.310757
881.368	0.287332
882.553	0.265978
883.738	0.245087
884.923	0.226452
886.108	0.203096
887.293	0.185328
888.478	0.173137
889.663	0.160584
890.848	0.153373
892.033	0.154816
893.218	0.157836
894.403	0.158297
895.588	0.160046
896.773	0.160209
897.958	0.156663
899.143	0.153574
900.328	0.170782
901.513	0.181428
902.698	0.199189
903.883	0.204569
905.068	0.226182
906.253	0.239169
907.438	0.254725
908.623	0.269332
909.808	0.275761
910.993	0.289095
912.178	0.302614
913.363	0.316091
914.548	0.328395
915.733	0.338772
916.918	0.348429
918.103	0.352919
919.288	0.354784
920.473	0.354883
921.658	0.355107
922.843	0.358119
924.028	0.356367
925.213	0.357875
926.398	0.35251
927.583	0.34245
928.768	0.337022
929.953	0.327509
931.138	0.306298
932.323	0.287609
933.508	0.268131
934.693	0.239885
935.878	0.224675
937.063	0.212598
938.248	0.192416
939.433	0.173731
940.618	0.156734
941.803	0.136679
942.988	0.111772
944.173	0.0906042
945.358	0.0750642
946.543	0.062795
947.728	0.0457478
948.913	0.0341445
950.098	0.0272879
951.283	0.0224335
952.468	0.0258336
953.653	0.0276449
954.838	0.0239413
956.023	0.0251194
957.208	0.0289364
958.393	0.0327401
959.578	0.0381231
960.763	0.0491246
961.948	0.0623666
963.133	0.0777579
964.318	0.0829289
965.503	0.0866714
966.688	0.0992589
967.873	0.105136
969.058	0.119303
970.243	0.136149
971.428	0.154171
972.613	0.16712
973.798	0.173322
974.983	0.177093
976.168	0.186232
977.353	0.190221
978.538	0.196091
979.723	0.204653
980.908	0.197085
982.093	0.198366
983.278	0.205182
984.463	0.203828
985.648	0.201301
986.833	0.201195
988.018	0.199403
989.203	0.186187
990.388	0.18077
991.573	0.183383
992.758	0.183991
993.943	0.187407
995.128	0.190096
996.313	0.188802
997.498	0.184776
998.683	0.182885
999.868	0.190493
1001.05	0.196465
1002.24	0.197649
1003.42	0.204651
1004.61	0.208922
1005.79	0.208015
1006.98	0.212106
1008.16	0.215826
1009.35	0.203088
1010.53	0.196273
1011.72	0.197048
1012.9	0.187237
1014.09	0.18511
1015.27	0.184866
1016.46	0.190322
1017.64	0.192739
1018.83	0.194421
1020.01	0.210571
1021.2	0.21948
1022.38	0.231406
1023.57	0.243558
1024.75	0.260601
1025.94	0.277096
1027.12	0.298299
1028.31	0.322353
1029.49	0.347299
1030.68	0.371322
1031.86	0.39784
1033.05	0.42627
1034.23	0.454607
1035.42	0.483549
1036.6	0.511239
1037.79	0.535026
1038.97	0.564774
1040.16	0.595397
1041.34	0.628718
1042.53	0.649423
1043.71	0.672375
1044.9	0.696693
1046.08	0.7193
1047.27	0.736875
1048.45	0.755343
1049.64	0.770852
1050.82	0.77796
1052.01	0.783815
1053.19	0.789182
1054.38	0.78894
1055.56	0.786178
1056.75	0.78569
1057.93	0.779667
1059.12	0.767449
1060.3	0.754365
1061.49	0.744889
1062.67	0.736846
1063.86	0.726393
1065.04	0.713774
1066.23	0.696819
1067.41	0.686875
1068.6	0.683103
1069.78	0.673347
1070.97	0.662616
1072.15	0.648896
1073.34	0.63225
1074.52	0.609946
1075.71	0.5857
1076.89	0.571366
1078.08	0.558878
1079.26	0.5464
1080.45	0.535034
1081.63	0.521778
1082.82	0.508152
1084	0.501972
1085.19	0.49296
1086.37	0.475795
1087.56	0.462422
1088.74	0.450638
1089.93	0.442589
1091.11	0.438323
1092.3	0.435165
1093.48	0.427857
1094.67	0.42139
1095.85	0.415789
1097.04	0.418548
1098.22	0.405991
1099.41	0.404093
1100.59	0.408015
1101.78	0.410093
1102.96	0.405917
1104.15	0.406632
1105.33	0.410025
1106.52	0.412856
1107.7	0.414112
1108.89	0.411625
1110.07	0.418638
1111.26	0.426312
1112.44	0.426303
1113.63	0.422713
1114.81	0.413702
1116	0.413281
1117.18	0.402637
1118.37	0.387703
1119.55	0.372866
1120.74	0.358902
1121.92	0.33731
1123.11	0.311954
1124.29	0.289666
1125.48	0.268237
1126.66	0.240162
1127.85	0.201585
1129.03	0.17135
1130.22	0.157274
1131.4	0.140725
1132.59	0.12842
1133.77	0.107804
1134.96	0.0924691
1136.14	0.07489
1137.33	0.0532718
1138.51	0.039733
1139.7	0.0340419
1140.88	0.0208738
1142.07	0.00655763
1143.25	0.00374055
1144.44	0.0129521
1145.62	0.0224522
1146.81	0.0239679
1147.99	0.0164235
1149.18	0.012546
1150.36	0.00266965
1151.55	0.00695985
1152.73	0.00995266
1153.92	0.0104181
1155.1	0.0191617
1156.29	0.0278097
1157.47	0.0256546
1158.66	0.0316468
1159.84	0.0395136
1161.03	0.0416947
1162.21	0.0362591
1163.4	0.0310908
1164.58	0.0282185
1165.77	0.0246711
1166.95	0.0251758
1168.14	0.0302035
1169.32	0.0251067
1170.51	0.0287275
1171.69	0.0303995
1172.88	0.0196724
1174.06	0.0127534
1175.25	0.0145314
1176.43	0.0174475
1177.62	0.0143715
1178.8	0.00819792
1179.99	0.00670779
1181.17	0.00791043
1182.36	0.0101483
1183.54	0.013396
1184.73	0.0140986
1185.91	0.0168888
1187.1	0.024723
1188.28	0.0249275
1189.47	0.0299291
1190.65	0.0417957
1191.84	0.0480267
1193.02	0.0551093
1194.21	0.0585372
1195.39	0.0667114
1196.58	0.0744707
1197.76	0.0866188
1198.95	0.0978355
1200.13	0.112059
1201.32	0.119488
1202.5	0.124673
1203.69	0.135725
1204.87	0.135992
1206.06	0.146724
1207.24	0.152618
1208.43	0.15475
1209.61	0.154093
1210.8	0.157929
1211.98	0.162425
1213.17	0.160027
1214.35	0.158931
1215.54	0.159934
1216.72	0.161136
1217.91	0.155768
1219.09	0.152173
1220.28	0.154364
1221.46	0.149622
1222.65	0.149299
1223.83	0.142008
1225.02	0.146808
1226.2	0.163509
1227.39	0.180387
1228.57	0.185038
1229.76	0.189781
1230.94	0.206174
1232.13	0.218429
1233.31	0.225653
1234.5	0.23031
1235.68	0.246102
1236.87	0.261109
1238.05	0.272682
1239.24	0.283566
1240.42	0.297008
1241.61	0.309293
1242.79	0.312949
1243.98	0.310668
1245.16	0.312595
1246.35	0.319095
1247.53	0.316912
1248.72	0.315838
1249.9	0.319165
1251.09	0.323203
1252.27	0.3259
1253.46	0.327881
1254.64	0.324754
1255.83	0.320558
1257.01	0.325688
1258.2	0.328949
1259.38	0.330546
1260.57	0.331044
1261.75	0.335709
1262.94	0.334381
1264.12	0.33582
1265.31	0.342318
1266.49	0.348783
1267.68	0.343929
1268.86	0.341857
1270.05	0.338632
1271.23	0.331695
1272.42	0.33321
1273.6	0.332556
1274.79	0.325508
1275.97	0.320289
1277.16	0.31662
1278.34	0.312996
1279.53	0.310757
1280.71	0.311967
1281.9	0.311468
1283.08	0.304924
1284.27	0.302239
1285.45	0.308337
1286.64	0.306736
1287.82	0.304203
1289.01	0.300063
1290.19	0.29588
1291.38	0.291852
1292.56	0.288423
1293.75	0.285517
1294.93	0.286421
1296.12	0.283144
1297.3	0.278042
1298.49	0.271827
1299.67	0.269001
1300.86	0.264956
1302.04	0.252539
1303.23	0.246864
1304.41	0.244641
1305.6	0.251306
1306.78	0.255882
1307.97	0.257447
1309.15	0.252306
1310.34	0.25256
1311.52	0.252267
1312.71	0.248143
1313.89	0.255674
1315.08	0.25973
1316.26	0.261295
1317.45	0.266353
1318.63	0.26805
1319.82	0.269579
1321	0.270886
1322.19	0.267557
1323.37	0.257951
1324.56	0.247145
1325.74	0.242947
1326.93	0.247909
1328.11	0.251122
1329.3	0.248909
1330.48	0.239592
1331.67	0.230318
1332.85	0.231966
1334.04	0.221945
1335.22	0.223815
1336.41	0.217656
1337.59	0.221115
1338.78	0.216362
1339.96	0.213934
1341.15	0.217967
1342.33	0.226688
1343.52	0.23077
1344.7	0.226516
1345.89	0.224969
1347.07	0.225521
1348.26	0.225432
1349.44	0.225512
1350.63	0.228159
1351.81	0.229184
1353	0.23418
1354.18	0.232132
1355.37	0.233338
1356.55	0.235408
1357.74	0.236379
1358.92	0.234386
1360.11	0.226271
1361.29	0.212281
1362.48	0.20941
1363.66	0.204005
1364.85	0.202713
1366.03	0.197561
1367.22	0.197018
1368.4	0.196563
1369.59	0.190689
1370.77	0.186274
1371.96	0.181809
1373.14	0.17491
1374.33	0.176484
1375.51	0.177016
1376.7	0.178706
1377.88	0.185958
1379.07	0.188404
1380.25	0.183889
1381.44	0.187376
1382.62	0.187059
1383.81	0.187852
1384.99	0.177755
1386.18	0.168996
1387.36	0.165424
1388.55	0.171293
1389.73	0.173304
1390.92	0.169543
1392.1	0.160061
1393.29	0.157588
1394.47	0.154414
1395.66	0.151253
1396.84	0.152913
1398.03	0.1512
1399.21	0.155748
1400.4	0.161167
1401.58	0.158834
1402.77	0.166611
1403.95	0.175148
1405.14	0.171508
1406.32	0.176852
1407.51	0.182149
1408.69	0.190781
1409.88	0.192086
1411.06	0.19685
1412.25	0.198786
1413.43	0.196879
1414.62	0.192191
1415.8	0.185403
1416.99	0.179959
1418.17	0.18299
1419.36	0.186697
1420.54	0.187862
1421.73	0.18721
1422.91	0.186558
1424.1	0.179371
1425.28	0.177638
1426.47	0.176338
1427.65	0.17152
1428.84	0.17897
1430.02	0.183818
1431.21	0.195942
1432.39	0.20434
1433.58	0.214498
1434.76	0.217019
1435.95	0.213596
1437.13	0.212051
1438.32	0.21048
1439.5	0.211792
1440.69	0.223782
1441.87	0.235217
1443.06	0.241731
1444.24	0.258102
1445.43	0.266377
1446.61	0.28185
1447.8	0.298804
1448.98	0.321903
1450.17	0.332406
1451.35	0.35354
1452.54	0.375006
1453.72	0.392632
1454.91	0.416723
1456.09	0.440481
1457.28	0.462617
1458.46	0.478526
1459.65	0.501492
1460.83	0.519719
1462.02	0.528281
1463.2	0.538463
1464.39	0.53784
1465.57	0.536622
1466.76	0.540305
1467.94	0.532391
1469.13	0.526506
1470.31	0.522394
1471.5	0.505044
1472.68	0.486902
1473.87	0.464373
1475.05	0.442931
1476.24	0.424435
1477.42	0.392278
1478.61	0.359585
1479.79	0.32781
1480.98	0.308854
1482.16	0.28031
1483.35	0.247371
1484.53	0.222434
1485.72	0.202435
1486.9	0.182479
1488.09	0.169284
1489.27	0.156884
1490.46	0.142532
1491.64	0.125359
1492.83	0.103924
1494.01	0.0947849
1495.2	0.0982694
1496.38	0.0915174
1497.57	0.084574
1498.75	0.0753295
1499.94	0.0728713
1501.12	0.066342
1502.31	0.0632582
1503.49	0.0579138
1504.68	0.0509268
1505.86	0.0418383
1507.05	0.0364488
1508.23	0.0366618
1509.42	0.0322243
1510.6	0.0360664
1511.79	0.0252727
1512.97	0.0244022
1514.16	0.0154659
1515.34	0.017149
1516.53	0.0177489
1517.71	0.0187247
1518.9	0.015311
1520.08	0.0186472
1521.27	0.0231229
1522.45	0.0228251
1523.64	0.0251081
1524.82	0.0213008
1526.01	0.0212687
1527.19	0.0194007
1528.38	0.0215789
1529.56	0.022688
1530.75	0.0235888
1531.93	0.0233722
1533.12	0.0203466
1534.3	0.022048
1535.49	0.0231081
1536.67	0.0137606
1537.86	0.0103353
1539.04	0.0101785
1540.23	0.0103588
1541.41	0.0144998
1542.6	0.0155143
1543.78	0.0163982
1544.97	0.0140675
1546.15	0.0123565
1547.34	0.0120196
1548.52	0.0138617
1549.71	0.0162993
1550.89	0.00999212
1552.08	0.00666676
1553.26	0.0117935
1554.45	0.0122326
1555.63	0.0158212
1556.82	0.0153582
1558	0.015161
1559.19	0.0110988
1560.37	0.00685339
1561.56	0.00775039
1562.74	0.00652947
1563.93	0.0106893
1565.11	0.00610381
1566.3	0.00626661
1567.48	0.00990353
1568.67	0.011237
1569.85	0.00868134
1571.04	0.00585797
1572.22	0.00620373
1573.41	0.00707484
1574.59	0.00709868
1575.78	0.00884679
1576.96	0.0107385
1578.15	0.0085735
1579.33	0.00796281
1580.52	0.00765071
1581.7	0.00991441
1582.89	0.0125313
1584.07	0.0124128
1585.26	0.011562
1586.44	0.0171276
1587.63	0.0164186
1588.81	0.0131631
1590	0.0119906
1591.18	0.0110398
1592.37	0.0113884
1593.55	0.0121928
1594.74	0.0141892
1595.92	0.0128309
1597.11	0.0118084
1598.29	0.0129372
1599.48	0.0125666
1600.66	0.0125825
1601.85	0.017846
1603.03	0.0143839
1604.22	0.0129355
1605.4	0.0104227
1606.59	0.0110536
1607.77	0.0160768
1608.96	0.0190499
1610.14	0.0192744
1611.33	0.021028
1612.51	0.0277812
1613.7	0.028066
1614.88	0.025857
1616.07	0.0284573
1617.25	0.0272028
1618.44	0.0251048
1619.62	0.02566
1620.81	0.0262003
1621.99	0.0271208
1623.18	0.0289339
1624.36	0.0226251
1625.55	0.0274718
1626.73	0.0329867
1627.92	0.0317386
1629.1	0.0292746
1630.29	0.0327791
1631.47	0.03524
1632.66	0.0421228
1633.84	0.0480346
1635.03	0.0484403
1636.21	0.0551943
1637.4	0.0535707
1638.58	0.0495376
1639.77	0.0503899
1640.95	0.0434979
1642.14	0.0409882
1643.32	0.0385028
1644.51	0.0390615
1645.69	0.0389135
1646.88	0.0397603
1648.06	0.0354254
1649.25	0.0338128
1650.43	0.0316464
1651.62	0.0360666
1652.8	0.0325985
1653.99	0.0371524
1655.17	0.0381501
1656.36	0.0414983
1657.54	0.0403276
1658.73	0.0415029
1659.91	0.0396538
1661.1	0.0418116
1662.28	0.0389509
1663.47	0.0425366
1664.65	0.0445129
1665.84	0.0443715
1667.02	0.046605
1668.21	0.0529028
1669.39	0.0562617
1670.58	0.0587285
1671.76	0.0614074
1672.95	0.0556426
1674.13	0.0600493
1675.32	0.0566123
1676.5	0.0615058
1677.69	0.0600369
1678.87	0.0574741
1680.06	0.0490346
1681.24	0.0465883
1682.43	0.0453639
1683.61	0.0383793
1684.8	0.0277362
1685.98	0.0276092
1687.17	0.0232257
1688.35	0.0166566
1689.54	0.0154671
1690.72	0.0119486
1691.91	0.00902647
1693.09	0.00873464
1694.28	0.00618975
1695.46	0.0095383
1696.65	0.0129906
1697.83	0.0114755
1699.02	0.00802232
1700.2	0.0105868
1701.39	0.0107134
1702.57	0.0129242
1703.76	0.0190541
1704.94	0.0195106
1706.13	0.0205995
1707.31	0.0218183
1708.5	0.0201002
1709.68	0.021293
1710.87	0.0212753
1712.05	0.0202782
1713.24	0.0182573
1714.42	0.0217126
1715.61	0.0200103
1716.79	0.0216565
1717.98	0.0186367
1719.16	0.012324
1720.35	0.0137446
1721.53	0.0162787
1722.72	0.0161054
1723.9	0.018072
1725.09	0.0179723
1726.27	0.0159429
1727.46	0.0137819
1728.64	0.0152199
1729.83	0.0138681
1731.01	0.0108164
1732.2	0.0100517
1733.38	0.00911644
1734.57	0.0103432
1735.75	0.00733142
1736.94	0.007204
1738.12	0.00882733
1739.31	0.0140233
1740.49	0.0132865
1741.68	0.0125016
1742.86	0.00987762
1744.05	0.00461343
1745.23	0.00507621
1746.42	0.00911507
1747.6	0.0118304
1748.79	0.0121157
1749.97	0.0149444
1751.16	0.0157385
1752.34	0.0137946
1753.53	0.0126628
1754.71	0.0130092
1755.9	0.0127058
1757.08	0.0136566
1758.27	0.0166987
1759.45	0.0242927
1760.64	0.0276402
1761.82	0.0297928
1763.01	0.0294404
1764.19	0.0290041
1765.38	0.0246725
1766.56	0.0288305
1767.74	0.033165
1768.93	0.0390699
1770.12	0.0336417
1771.3	0.0298987
1772.49	0.0285255
1773.67	0.0274338
1774.85	0.0220561
1776.04	0.0208105
1777.23	0.0149418
1778.41	0.0138814
1779.6	0.0147337
1780.78	0.0167116
1781.97	0.013528
1783.15	0.00737504
1784.34	0.0043543
1785.52	0.0073134
1786.7	0.00663967
1787.89	0.00573016
1789.08	0.00716409
1790.26	0.0112817
1791.45	0.0116164
1792.63	0.0119417
1793.81	0.0115167
1795	0.0119364
