405	0.0892979
406.185	0.122951
407.37	0.155287
408.555	0.182585
409.74	0.204175
410.925	0.222723
412.11	0.238449
413.295	0.248265
414.48	0.258027
415.665	0.271542
416.85	0.276197
418.035	0.27789
419.22	0.279139
420.405	0.274749
421.59	0.263939
422.775	0.251955
423.96	0.232955
425.145	0.218137
426.33	0.196797
427.515	0.179387
428.7	0.165123
429.885	0.151395
431.07	0.135133
432.255	0.116965
433.44	0.104014
434.625	0.0892338
435.81	0.0767137
436.995	0.0644544
438.18	0.0504267
439.365	0.0356212
440.55	0.0224162
441.735	0.0128351
442.92	0.00780423
444.105	0.00782093
445.29	0.00479879
446.475	0.00394547
447.66	0.00140999
448.845	-0.00355404
450.03	-0.00837375
451.215	-0.0105657
452.4	-0.0102505
453.585	-0.00918541
454.77	-0.00414442
455.955	2.25819e-005
457.14	0.00708427
458.325	0.0172845
459.51	0.027602
460.695	0.041564
461.88	0.0611107
463.065	0.0809989
464.25	0.102731
465.435	0.127035
466.62	0.152545
467.805	0.183767
468.99	0.220099
470.175	0.260937
471.36	0.302955
472.545	0.345725
473.73	0.393894
474.915	0.437453
476.1	0.485008
477.285	0.525303
478.47	0.568806
479.655	0.608617
480.84	0.643509
482.025	0.674317
483.21	0.701026
484.395	0.724855
485.58	0.746958
486.765	0.765528
487.95	0.77493
489.135	0.777079
490.32	0.771898
491.505	0.762335
492.69	0.747611
493.875	0.725798
495.06	0.699468
496.245	0.663149
497.43	0.633944
498.615	0.599929
499.8	0.567214
500.985	0.530386
502.17	0.494207
503.355	0.460107
504.54	0.425077
505.725	0.38977
506.91	0.353897
508.095	0.321227
509.28	0.291705
510.465	0.266667
511.65	0.241494
512.835	0.215589
514.02	0.194694
515.205	0.18164
516.39	0.170338
517.575	0.154701
518.76	0.143085
519.945	0.134306
521.13	0.129501
522.315	0.121905
523.5	0.117359
524.685	0.113733
525.87	0.111324
527.055	0.112804
528.24	0.111754
529.425	0.109464
530.61	0.105034
531.795	0.108001
532.98	0.109073
534.164	0.114102
535.35	0.117735
536.535	0.122733
537.719	0.130854
538.905	0.136631
540.09	0.145003
541.274	0.150868
542.46	0.159454
543.644	0.157581
544.829	0.164347
546.015	0.170021
547.199	0.173216
548.385	0.174949
549.569	0.174845
550.754	0.175247
551.94	0.179821
553.124	0.181948
554.309	0.17389
555.495	0.16822
556.679	0.162227
557.864	0.16062
559.049	0.157338
560.234	0.151456
561.419	0.146751
562.604	0.14318
563.789	0.143506
564.974	0.135286
566.159	0.125387
567.344	0.119983
568.529	0.113695
569.714	0.11062
570.899	0.103919
572.084	0.0979885
573.269	0.0970956
574.454	0.0942446
575.639	0.0937368
576.824	0.0963148
578.009	0.0884495
579.194	0.0813623
580.379	0.0765018
581.564	0.0733976
582.749	0.0673182
583.934	0.060446
585.119	0.0567905
586.304	0.0556039
587.489	0.0554541
588.674	0.0600676
589.859	0.0619892
591.044	0.0614938
592.229	0.0585555
593.414	0.0570593
594.599	0.0551638
595.784	0.0500468
596.969	0.044126
598.154	0.0412435
599.339	0.0408915
600.524	0.0398187
601.709	0.0332461
602.894	0.0335728
604.079	0.0332798
605.264	0.0365432
606.449	0.0337182
607.634	0.030011
608.819	0.0250083
610.004	0.019942
611.189	0.0171605
612.374	0.0147705
613.559	0.0157825
614.744	0.0188887
615.929	0.0132585
617.114	0.0139639
618.299	0.0137588
619.484	0.00932214
620.669	0.00920975
621.854	0.0100365
623.039	0.0105374
624.224	0.0111362
625.409	0.00839032
626.594	0.00745932
627.779	0.00641373
628.964	0.0127699
630.149	0.0126947
631.334	0.0127214
632.519	0.0127988
633.704	0.0123578
634.889	0.0147774
636.074	0.0181326
637.259	0.0210909
638.444	0.026137
639.629	0.0302543
640.814	0.0288874
641.999	0.033486
643.184	0.0345839
644.369	0.0323033
645.554	0.034334
646.739	0.0376124
647.924	0.0415317
649.109	0.0465988
650.294	0.0521537
651.479	0.0561815
652.664	0.0589721
653.849	0.0647789
655.034	0.0708413
656.219	0.0816437
657.404	0.0836116
658.589	0.0893091
659.774	0.0983253
660.959	0.105872
662.144	0.11433
663.329	0.127986
664.514	0.142358
665.699	0.15263
666.884	0.161614
668.069	0.17039
669.254	0.182429
670.439	0.189573
671.624	0.200061
672.809	0.204824
673.994	0.209659
675.179	0.209138
676.364	0.211886
677.549	0.21503
678.734	0.215326
679.919	0.214826
681.104	0.211331
682.289	0.199091
683.474	0.185224
684.659	0.180929
685.844	0.168114
687.029	0.152862
688.214	0.138959
689.399	0.127049
690.584	0.115545
691.769	0.102487
692.954	0.0895102
694.139	0.0789783
695.324	0.0692175
696.509	0.0581764
697.694	0.0488895
698.879	0.040163
700.064	0.0304054
701.249	0.033285
702.434	0.0315008
703.619	0.0246872
704.804	0.0238302
705.989	0.0247175
707.174	0.023941
708.359	0.0190761
709.544	0.0153443
710.729	0.0162003
711.914	0.0164853
713.099	0.0151007
714.284	0.0165291
715.469	0.0122758
716.654	0.00858232
717.839	0.00570691
719.024	0.00767008
720.209	0.00528135
721.394	0.00533495
722.579	0.00601605
723.764	0.00726015
724.949	0.00868587
726.134	0.00784059
727.319	0.00678343
728.504	0.00719611
729.689	0.00250799
730.874	0.000904432
732.059	0.000706342
733.244	-0.00392436
734.429	0.00102931
735.614	0.00582248
736.799	0.00704648
737.984	0.00732798
739.169	0.00559439
740.354	0.00550317
741.539	0.00544575
742.724	0.00434615
743.909	0.00218794
745.094	0.000380196
746.279	0.00389382
747.464	0.00554001
748.649	0.00718693
749.834	0.00651127
751.019	0.00784935
752.204	0.00980199
753.389	0.00678985
754.574	0.005513
755.759	0.00512043
756.944	0.00550328
758.129	0.00886174
759.314	0.00853366
760.499	0.00473651
761.684	0.00201871
762.869	0.000531974
764.054	0.00397607
765.239	0.00374625
766.424	0.00491366
767.609	0.00186764
768.794	0.00432957
769.979	0.0067594
771.164	0.00336136
772.349	0.00488873
773.534	0.00615556
774.719	0.0109553
775.904	0.0144256
777.089	0.0146731
778.274	0.0154721
779.459	0.018321
780.644	0.0221066
781.829	0.0255738
783.014	0.0261222
784.199	0.0262575
785.384	0.025892
786.569	0.0284665
787.754	0.0311913
788.939	0.0324407
790.124	0.0378856
791.309	0.0362196
792.494	0.0338341
793.679	0.0346941
794.864	0.0330165
796.049	0.0310421
797.234	0.0343463
798.419	0.0411828
799.604	0.0471046
800.789	0.0522333
801.974	0.0581314
803.159	0.0673707
804.344	0.0886496
805.529	0.111398
806.714	0.130511
807.899	0.152596
809.084	0.179319
810.269	0.214419
811.454	0.248672
812.639	0.277506
813.823	0.306177
815.009	0.337112
816.194	0.365504
817.378	0.389007
818.564	0.411261
819.748	0.433678
820.933	0.453327
822.119	0.465751
823.303	0.467076
824.488	0.467907
825.674	0.470768
826.858	0.475841
828.044	0.472322
829.228	0.468562
830.413	0.464495
831.599	0.464712
832.783	0.476685
833.968	0.484322
835.153	0.496808
836.338	0.517744
837.523	0.543642
838.708	0.569949
839.893	0.600735
841.078	0.638965
842.263	0.680896
843.448	0.72426
844.633	0.76485
845.818	0.799047
847.003	0.835386
848.188	0.867062
849.373	0.899539
850.558	0.919433
851.743	0.933443
852.928	0.946201
854.113	0.948225
855.298	0.944734
856.483	0.934306
857.668	0.921856
858.853	0.904295
860.038	0.879874
861.223	0.852752
862.408	0.821359
863.593	0.789132
864.778	0.756237
865.963	0.719222
867.148	0.680606
868.333	0.64152
869.518	0.605138
870.703	0.565935
871.888	0.532098
873.073	0.497323
874.258	0.458436
875.443	0.420308
876.628	0.383885
877.813	0.351232
878.998	0.319221
880.183	0.288099
881.368	0.260807
882.553	0.23421
883.738	0.211358
884.923	0.195563
886.108	0.18055
887.293	0.165526
888.478	0.155784
889.663	0.145687
890.848	0.135346
892.033	0.131076
893.218	0.129873
894.403	0.132553
895.588	0.138471
896.773	0.143175
897.958	0.151852
899.143	0.155721
900.328	0.165258
901.513	0.17441
902.698	0.183837
903.883	0.192436
905.068	0.206931
906.253	0.220126
907.438	0.228605
908.623	0.24205
909.808	0.256297
910.993	0.26989
912.178	0.281115
913.363	0.29223
914.548	0.304602
915.733	0.316062
916.918	0.328305
918.103	0.339478
919.288	0.346883
920.473	0.351561
921.658	0.355737
922.843	0.357377
924.028	0.355108
925.213	0.355293
926.398	0.350809
927.583	0.345442
928.768	0.333561
929.953	0.323005
931.138	0.3119
932.323	0.294153
933.508	0.274073
934.693	0.256483
935.878	0.239026
937.063	0.212136
938.248	0.194426
939.433	0.177622
940.618	0.154496
941.803	0.139021
942.988	0.122741
944.173	0.107428
945.358	0.0930529
946.543	0.0792865
947.728	0.0675911
948.913	0.0626435
950.098	0.0584839
951.283	0.0546716
952.468	0.0519288
953.653	0.0460179
954.838	0.0445366
956.023	0.0483448
957.208	0.0482589
958.393	0.051131
959.578	0.0568055
960.763	0.0605662
961.948	0.0655399
963.133	0.0763422
964.318	0.0844936
965.503	0.0996967
966.688	0.111601
967.873	0.116642
969.058	0.125316
970.243	0.135118
971.428	0.142103
972.613	0.156813
973.798	0.165616
974.983	0.169611
976.168	0.176514
977.353	0.181894
978.538	0.185533
979.723	0.189608
980.908	0.18841
982.093	0.187264
983.278	0.184946
984.463	0.182552
985.648	0.178963
986.833	0.178319
988.018	0.176455
989.203	0.174448
990.388	0.171255
991.573	0.166044
992.758	0.163834
993.943	0.165879
995.128	0.165491
996.313	0.164315
997.498	0.163131
998.683	0.160595
999.868	0.161943
1001.05	0.163274
1002.24	0.163024
1003.42	0.1657
1004.61	0.168094
1005.79	0.163768
1006.98	0.160381
1008.16	0.160311
1009.35	0.158006
1010.53	0.156287
1011.72	0.156145
1012.9	0.156034
1014.09	0.158458
1015.27	0.159676
1016.46	0.167437
1017.64	0.172345
1018.83	0.176261
1020.01	0.184504
1021.2	0.189496
1022.38	0.193905
1023.57	0.208498
1024.75	0.224579
1025.94	0.240436
1027.12	0.260928
1028.31	0.282108
1029.49	0.302768
1030.68	0.322777
1031.86	0.349054
1033.05	0.374155
1034.23	0.400863
1035.42	0.428226
1036.6	0.458448
1037.79	0.487845
1038.97	0.516707
1040.16	0.548048
1041.34	0.577165
1042.53	0.60619
1043.71	0.631402
1044.9	0.653142
1046.08	0.675692
1047.27	0.696966
1048.45	0.711561
1049.64	0.722071
1050.82	0.733825
1052.01	0.741062
1053.19	0.743369
1054.38	0.743343
1055.56	0.741939
1056.75	0.738422
1057.93	0.732965
1059.12	0.72764
1060.3	0.719819
1061.49	0.709344
1062.67	0.698946
1063.86	0.687175
1065.04	0.675557
1066.23	0.66528
1067.41	0.654562
1068.6	0.640458
1069.78	0.622673
1070.97	0.607657
1072.15	0.593832
1073.34	0.578154
1074.52	0.564787
1075.71	0.552728
1076.89	0.53702
1078.08	0.522172
1079.26	0.508815
1080.45	0.494394
1081.63	0.483147
1082.82	0.471681
1084	0.460269
1085.19	0.45213
1086.37	0.441624
1087.56	0.437704
1088.74	0.434241
1089.93	0.429047
1091.11	0.426719
1092.3	0.422931
1093.48	0.417497
1094.67	0.41269
1095.85	0.407329
1097.04	0.407279
1098.22	0.408801
1099.41	0.408014
1100.59	0.406422
1101.78	0.404552
1102.96	0.404099
1104.15	0.408341
1105.33	0.406897
1106.52	0.407093
1107.7	0.409969
1108.89	0.407421
1110.07	0.402706
1111.26	0.399093
1112.44	0.396829
1113.63	0.39834
1114.81	0.391756
1116	0.385687
1117.18	0.375877
1118.37	0.364208
1119.55	0.354068
1120.74	0.337358
1121.92	0.316632
1123.11	0.299519
1124.29	0.2767
1125.48	0.251566
1126.66	0.232786
1127.85	0.212393
1129.03	0.194599
1130.22	0.174129
1131.4	0.148115
1132.59	0.128472
1133.77	0.109108
1134.96	0.0889855
1136.14	0.0746689
1137.33	0.0583478
1138.51	0.0475858
1139.7	0.0371865
1140.88	0.0280751
1142.07	0.023925
1143.25	0.0213511
1144.44	0.0152812
1145.62	0.01075
1146.81	0.00731354
1147.99	0.00401398
1149.18	0.00303218
1150.36	0.00374109
1151.55	0.00397883
1152.73	0.00639464
1153.92	0.00538045
1155.1	0.0042721
1156.29	0.00371297
1157.47	0.0075038
1158.66	0.0105081
1159.84	0.0113425
1161.03	0.00954182
1162.21	0.0116259
1163.4	0.0112602
1164.58	0.0101328
1165.77	0.0102039
1166.95	0.00789589
1168.14	0.00344659
1169.32	0.00289853
1170.51	0.00592604
1171.69	0.00812263
1172.88	0.0102678
1174.06	0.0116287
1175.25	0.0105593
1176.43	0.0113076
1177.62	0.014027
1178.8	0.0169723
1179.99	0.0226875
1181.17	0.0285738
1182.36	0.0312611
1183.54	0.0368789
1184.73	0.0437568
1185.91	0.0482948
1187.1	0.0515922
1188.28	0.0546237
1189.47	0.0579113
1190.65	0.061075
1191.84	0.0642883
1193.02	0.0675717
1194.21	0.0696572
1195.39	0.071177
1196.58	0.0721668
1197.76	0.0726503
1198.95	0.074663
1200.13	0.0782583
1201.32	0.0831585
1202.5	0.0891763
1203.69	0.0922033
1204.87	0.0929724
1206.06	0.09433
1207.24	0.0960844
1208.43	0.0974242
1209.61	0.102864
1210.8	0.105472
1211.98	0.109045
1213.17	0.114751
1214.35	0.11344
1215.54	0.116452
1216.72	0.117274
1217.91	0.121436
1219.09	0.121164
1220.28	0.122551
1221.46	0.130754
1222.65	0.13249
1223.83	0.137607
1225.02	0.143498
1226.2	0.149969
1227.39	0.155947
1228.57	0.161814
1229.76	0.165104
1230.94	0.165212
1232.13	0.170441
1233.31	0.174566
1234.5	0.183743
1235.68	0.188272
1236.87	0.196409
1238.05	0.20305
1239.24	0.208432
1240.42	0.212802
1241.61	0.216527
1242.79	0.222166
1243.98	0.225123
1245.16	0.228803
1246.35	0.231051
1247.53	0.236923
1248.72	0.244581
1249.9	0.247212
1251.09	0.247396
1252.27	0.249777
1253.46	0.249132
1254.64	0.247634
1255.83	0.246371
1257.01	0.248029
1258.2	0.252148
1259.38	0.253714
1260.57	0.258221
1261.75	0.260135
1262.94	0.260844
1264.12	0.264525
1265.31	0.261725
1266.49	0.262446
1267.68	0.266836
1268.86	0.269098
1270.05	0.262416
1271.23	0.261158
1272.42	0.257457
1273.6	0.253193
1274.79	0.248455
1275.97	0.247975
1277.16	0.243057
1278.34	0.240299
1279.53	0.236112
1280.71	0.232115
1281.9	0.227482
1283.08	0.22551
1284.27	0.223443
1285.45	0.219232
1286.64	0.215118
1287.82	0.213634
1289.01	0.211075
1290.19	0.209324
1291.38	0.211268
1292.56	0.209922
1293.75	0.209478
1294.93	0.208081
1296.12	0.206357
1297.3	0.203385
1298.49	0.204181
1299.67	0.209387
1300.86	0.208807
1302.04	0.206983
1303.23	0.211415
1304.41	0.216076
1305.6	0.221092
1306.78	0.227878
1307.97	0.229148
1309.15	0.231445
1310.34	0.238116
1311.52	0.239368
1312.71	0.240542
1313.89	0.241671
1315.08	0.242753
1316.26	0.241361
1317.45	0.238078
1318.63	0.238665
1319.82	0.237174
1321	0.234868
1322.19	0.230591
1323.37	0.221968
1324.56	0.219401
1325.74	0.218796
1326.93	0.212115
1328.11	0.209911
1329.3	0.208602
1330.48	0.207174
1331.67	0.206597
1332.85	0.205725
1334.04	0.206001
1335.22	0.205179
1336.41	0.204942
1337.59	0.206024
1338.78	0.205147
1339.96	0.210757
1341.15	0.215153
1342.33	0.214551
1343.52	0.216473
1344.7	0.215645
1345.89	0.212034
1347.07	0.209696
1348.26	0.209492
1349.44	0.210638
1350.63	0.209393
1351.81	0.209082
1353	0.206283
1354.18	0.204519
1355.37	0.204857
1356.55	0.202446
1357.74	0.200293
1358.92	0.200661
1360.11	0.198498
1361.29	0.198878
1362.48	0.200808
1363.66	0.203139
1364.85	0.206892
1366.03	0.205022
1367.22	0.204224
1368.4	0.207204
1369.59	0.208592
1370.77	0.207725
1371.96	0.206512
1373.14	0.206667
1374.33	0.206967
1375.51	0.204556
1376.7	0.202592
1377.88	0.200029
1379.07	0.200975
1380.25	0.197516
1381.44	0.192116
1382.62	0.189586
1383.81	0.194254
1384.99	0.192466
1386.18	0.188206
1387.36	0.190839
1388.55	0.19153
1389.73	0.191417
1390.92	0.189206
1392.1	0.189408
1393.29	0.188542
1394.47	0.188109
1395.66	0.186519
1396.84	0.186381
1398.03	0.189744
1399.21	0.189748
1400.4	0.185948
1401.58	0.185259
1402.77	0.185277
1403.95	0.184568
1405.14	0.183581
1406.32	0.178465
1407.51	0.178036
1408.69	0.175593
1409.88	0.178482
1411.06	0.178181
1412.25	0.177269
1413.43	0.176205
1414.62	0.17095
1415.8	0.16871
1416.99	0.167445
1418.17	0.163166
1419.36	0.160593
1420.54	0.164156
1421.73	0.165943
1422.91	0.170685
1424.1	0.174448
1425.28	0.174241
1426.47	0.172242
1427.65	0.171766
1428.84	0.172384
1430.02	0.172084
1431.21	0.173483
1432.39	0.176152
1433.58	0.178846
1434.76	0.183217
1435.95	0.190653
1437.13	0.193281
1438.32	0.194166
1439.5	0.199161
1440.69	0.204277
1441.87	0.212425
1443.06	0.222075
1444.24	0.237132
1445.43	0.253971
1446.61	0.270582
1447.8	0.290055
1448.98	0.310126
1450.17	0.327915
1451.35	0.34726
1452.54	0.365559
1453.72	0.384881
1454.91	0.407715
1456.09	0.428097
1457.28	0.445293
1458.46	0.460971
1459.65	0.474451
1460.83	0.483959
1462.02	0.489541
1463.2	0.495898
1464.39	0.497884
1465.57	0.500992
1466.76	0.500765
1467.94	0.496251
1469.13	0.486687
1470.31	0.474296
1471.5	0.458208
1472.68	0.437471
1473.87	0.41702
1475.05	0.397026
1476.24	0.374662
1477.42	0.352011
1478.61	0.327483
1479.79	0.2994
1480.98	0.276671
1482.16	0.247714
1483.35	0.22313
1484.53	0.20007
1485.72	0.178691
1486.9	0.159509
1488.09	0.143028
1489.27	0.128956
1490.46	0.117253
1491.64	0.107735
1492.83	0.0966335
1494.01	0.0866047
1495.2	0.0809288
1496.38	0.0774922
1497.57	0.0710614
1498.75	0.0678247
1499.94	0.0643016
1501.12	0.0633852
1502.31	0.0620697
1503.49	0.0582473
1504.68	0.05387
1505.86	0.0527233
1507.05	0.047384
1508.23	0.0435821
1509.42	0.0458145
1510.6	0.0441069
1511.79	0.0400468
1512.97	0.0362628
1514.16	0.0331271
1515.34	0.0338273
1516.53	0.0345067
1517.71	0.0318052
1518.9	0.0305288
1520.08	0.0299323
1521.27	0.0287417
1522.45	0.0259794
1523.64	0.0252714
1524.82	0.0215711
1526.01	0.019113
1527.19	0.0175892
1528.38	0.0161717
1529.56	0.0159005
1530.75	0.0144748
1531.93	0.00964809
1533.12	0.00651001
1534.3	0.005793
1535.49	0.00389369
1536.67	0.00398854
1537.86	0.00574511
1539.04	0.00758416
1540.23	0.00959074
1541.41	0.00999235
1542.6	0.00937325
1543.78	0.00957252
1544.97	0.011258
1546.15	0.0114119
1547.34	0.0104534
1548.52	0.0105924
1549.71	0.0104872
1550.89	0.00818762
1552.08	0.00850316
1553.26	0.00659079
1554.45	0.00605313
1555.63	0.00570108
1556.82	0.00426732
1558	0.00268612
1559.19	0.000137308
1560.37	-0.00154911
1561.56	-0.00272439
1562.74	-0.00162425
1563.93	-2.60537e-005
1565.11	-0.000709451
1566.3	-0.000907379
1567.48	0.000521644
1568.67	-3.74665e-005
1569.85	-0.000979757
1571.04	-0.00169935
1572.22	-0.000843819
1573.41	-0.000130997
1574.59	0.00294395
1575.78	0.00573729
1576.96	0.00497608
1578.15	0.00409874
1579.33	0.00381422
1580.52	0.00280547
1581.7	0.00211788
1582.89	0.000687907
1584.07	0.00050895
1585.26	0.00168242
1586.44	0.00273824
1587.63	0.00449663
1588.81	0.00412955
1590	0.00615345
1591.18	0.00493549
1592.37	0.00512196
1593.55	0.00579334
1594.74	0.00539511
1595.92	0.00623883
1597.11	0.00663763
1598.29	0.00869729
1599.48	0.00982758
1600.66	0.008777
1601.85	0.00891492
1603.03	0.00900717
1604.22	0.00662836
1605.4	0.00580483
1606.59	0.00292871
1607.77	0.00128039
1608.96	0.0016196
1610.14	0.00377312
1611.33	0.00643514
1612.51	0.00661389
1613.7	0.00803819
1614.88	0.00556748
1616.07	0.00628035
1617.25	0.00665934
1618.44	0.00589945
1619.62	0.00612669
1620.81	0.00613594
1621.99	0.00729518
1623.18	0.00917711
1624.36	0.00974466
1625.55	0.00827009
1626.73	0.00868724
1627.92	0.00909943
1629.1	0.00966553
1630.29	0.00988664
1631.47	0.0105006
1632.66	0.011588
1633.84	0.0128125
1635.03	0.0140269
1636.21	0.0180393
1637.4	0.0198125
1638.58	0.0231396
1639.77	0.023993
1640.95	0.0251654
1642.14	0.0233092
1643.32	0.0213992
1644.51	0.022067
1645.69	0.0248362
1646.88	0.0268154
1648.06	0.0283212
1649.25	0.0285979
1650.43	0.0283762
1651.62	0.0291668
1652.8	0.0258587
1653.99	0.0285915
1655.17	0.029642
1656.36	0.0310537
1657.54	0.0308213
1658.73	0.0333344
1659.91	0.0364514
1661.1	0.038186
1662.28	0.0358559
1663.47	0.0345932
1664.65	0.0325236
1665.84	0.0355268
1667.02	0.0343509
1668.21	0.0335013
1669.39	0.0311102
1670.58	0.0290985
1671.76	0.0286761
1672.95	0.0274109
1674.13	0.0312257
1675.32	0.0288881
1676.5	0.0267796
1677.69	0.0229841
1678.87	0.0228259
1680.06	0.0237783
1681.24	0.021686
1682.43	0.0173217
1683.61	0.0194311
1684.8	0.0152673
1685.98	0.0166507
1687.17	0.0137658
1688.35	0.0109478
1689.54	0.0099527
1690.72	0.00752765
1691.91	0.00672694
1693.09	0.00583313
1694.28	0.0049862
1695.46	0.00258148
1696.65	0.00400404
1697.83	0.00413244
1699.02	0.00539551
1700.2	0.00457783
1701.39	0.00525082
1702.57	0.00500679
1703.76	0.00582025
1704.94	0.00544446
1706.13	0.00328221
1707.31	0.000647434
1708.5	0.000819694
1709.68	0.00215863
1710.87	0.00377425
1712.05	0.00178068
1713.24	0.0020829
1714.42	0.00193653
1715.61	0.000352259
1716.79	0.000280257
1717.98	-0.00152419
1719.16	-0.000809776
1720.35	-0.00146466
1721.53	0.000626114
1722.72	0.00329072
1723.9	0.00406108
1725.09	0.004549
1726.27	0.00251117
1727.46	0.00235588
1728.64	0.00191333
1729.83	-0.00135928
1731.01	-0.00146289
1732.2	0.000732498
1733.38	0.00249629
1734.57	0.00376698
1735.75	0.00427328
1736.94	0.00471679
1738.12	0.00396516
1739.31	0.00152574
1740.49	7.15728e-005
1741.68	0.000976311
1742.86	0.00199415
1744.05	0.00218428
1745.23	0.00163309
1746.42	0.00238061
1747.6	-0.000821287
1748.79	-0.000498759
1749.97	-0.00127945
1751.16	-0.00243007
1752.34	-0.00187175
1753.53	-0.00224395
1754.71	-0.000566206
1755.9	0.00116526
1757.08	0.00102941
1758.27	0.00264343
1759.45	0.00317847
1760.64	0.00587411
1761.82	0.0077804
1763.01	0.0088665
1764.19	0.0100085
1765.38	0.00955084
1766.56	0.0106648
1767.74	0.0086656
1768.93	0.00967864
1770.12	0.0093156
1771.3	0.0102728
1772.49	0.00990373
1773.67	0.00841577
1774.85	0.0074579
1776.04	0.00583371
1777.23	0.00240051
1778.41	0.00377637
1779.6	0.00445759
1780.78	0.0040022
1781.97	0.00451447
1783.15	0.00497062
1784.34	0.00502259
1785.52	0.00430218
1786.7	0.00244357
1787.89	0.00156114
1789.08	0.000908743
1790.26	0.000185051
1791.45	0.000495664
1792.63	0.00118445
1793.81	-6.02321e-005
1795	-0.00236453
