405	0.0736408
406.185	0.104351
407.37	0.137884
408.555	0.168494
409.74	0.196777
410.925	0.224055
412.11	0.248083
413.295	0.263998
414.48	0.273098
415.665	0.284041
416.85	0.287733
418.035	0.293393
419.22	0.303568
420.405	0.307272
421.59	0.301072
422.775	0.291611
423.96	0.266769
425.145	0.260014
426.33	0.233707
427.515	0.215568
428.7	0.196327
429.885	0.16927
431.07	0.140246
432.255	0.11739
433.44	0.0959765
434.625	0.0858867
435.81	0.0732275
436.995	0.0595758
438.18	0.0467244
439.365	0.0305978
440.55	0.0166021
441.735	0.0106398
442.92	0.0074818
444.105	0.00606427
445.29	0.000733211
446.475	0.00320231
447.66	0.00135717
448.845	-0.00211172
450.03	0.00221303
451.215	0.0102748
452.4	0.01171
453.585	0.0171503
454.77	0.020074
455.955	0.0264026
457.14	0.0312523
458.325	0.0405232
459.51	0.0525407
460.695	0.0672601
461.88	0.0846419
463.065	0.102791
464.25	0.12542
465.435	0.145689
466.62	0.171793
467.805	0.204256
468.99	0.240856
470.175	0.277924
471.36	0.316588
472.545	0.358914
473.73	0.402219
474.915	0.44728
476.1	0.482829
477.285	0.521222
478.47	0.559928
479.655	0.59849
480.84	0.631004
482.025	0.656984
483.21	0.683887
484.395	0.714343
485.58	0.725768
486.765	0.740554
487.95	0.750042
489.135	0.745624
490.32	0.735584
491.505	0.719112
492.69	0.697868
493.875	0.676465
495.06	0.652535
496.245	0.626849
497.43	0.59964
498.615	0.571347
499.8	0.539097
500.985	0.50673
502.17	0.471586
503.355	0.429166
504.54	0.385507
505.725	0.354619
506.91	0.325784
508.095	0.295335
509.28	0.270855
510.465	0.248209
511.65	0.225535
512.835	0.206113
514.02	0.187615
515.205	0.168847
516.39	0.153996
517.575	0.13998
518.76	0.12537
519.945	0.121903
521.13	0.116272
522.315	0.110532
523.5	0.106645
524.685	0.105444
525.87	0.103969
527.055	0.100433
528.24	0.0992949
529.425	0.0967216
530.61	0.0943669
531.795	0.102134
532.98	0.103255
534.164	0.111967
535.35	0.120781
536.535	0.128608
537.719	0.137363
538.905	0.141025
540.09	0.138302
541.274	0.134211
542.46	0.139165
543.644	0.150665
544.829	0.157987
546.015	0.16128
547.199	0.161564
548.385	0.16632
549.569	0.175619
550.754	0.177232
551.94	0.176451
553.124	0.184407
554.309	0.179472
555.495	0.175509
556.679	0.174682
557.864	0.172916
559.049	0.173129
560.234	0.180237
561.419	0.188388
562.604	0.187489
563.789	0.188703
564.974	0.172891
566.159	0.174464
567.344	0.162695
568.529	0.156809
569.714	0.157446
570.899	0.157175
572.084	0.152708
573.269	0.144558
574.454	0.136224
575.639	0.135449
576.824	0.124049
578.009	0.126535
579.194	0.122822
580.379	0.117689
581.564	0.11648
582.749	0.112358
583.934	0.113017
585.119	0.116233
586.304	0.112014
587.489	0.112552
588.674	0.110534
589.859	0.0986665
591.044	0.0931219
592.229	0.0902667
593.414	0.0926126
594.599	0.0934871
595.784	0.0932702
596.969	0.0872665
598.154	0.0766618
599.339	0.0710258
600.524	0.0622683
601.709	0.053718
602.894	0.0464891
604.079	0.0474861
605.264	0.0410936
606.449	0.0428035
607.634	0.041104
608.819	0.040241
610.004	0.0417028
611.189	0.0373588
612.374	0.0281225
613.559	0.0237077
614.744	0.0186509
615.929	0.0195218
617.114	0.0191714
618.299	0.0168388
619.484	0.018333
620.669	0.0163936
621.854	0.0155431
623.039	0.0141931
624.224	0.0110464
625.409	0.0124795
626.594	0.00931954
627.779	0.00501165
628.964	-0.00226624
630.149	-0.00467058
631.334	0.00142296
632.519	0.00777756
633.704	0.00973042
634.889	0.00997311
636.074	0.0115541
637.259	0.0137068
638.444	0.0131103
639.629	0.0094731
640.814	0.0117265
641.999	0.0199649
643.184	0.0263099
644.369	0.0303567
645.554	0.0309756
646.739	0.0315891
647.924	0.039717
649.109	0.0454131
650.294	0.0451142
651.479	0.0449345
652.664	0.0460717
653.849	0.0482466
655.034	0.04836
656.219	0.0549782
657.404	0.0575809
658.589	0.0697848
659.774	0.0812578
660.959	0.0790613
662.144	0.0791275
663.329	0.088779
664.514	0.102956
665.699	0.114627
666.884	0.122133
668.069	0.131862
669.254	0.143096
670.439	0.149948
671.624	0.159411
672.809	0.16472
673.994	0.169534
675.179	0.171727
676.364	0.171787
677.549	0.169399
678.734	0.166239
679.919	0.163132
681.104	0.159952
682.289	0.155038
683.474	0.137378
684.659	0.126714
685.844	0.118011
687.029	0.104565
688.214	0.0925488
689.399	0.079617
690.584	0.0676445
691.769	0.0544876
692.954	0.0438129
694.139	0.0347893
695.324	0.0273545
696.509	0.0226651
697.694	0.0130691
698.879	0.0113008
700.064	0.0139617
701.249	0.00490131
702.434	-0.00152812
703.619	-0.00326301
704.804	3.2298e-005
705.989	-0.00148747
707.174	0.000328684
708.359	0.0053743
709.544	0.00653303
710.729	0.00657443
711.914	0.00849406
713.099	0.00459055
714.284	0.00485991
715.469	0.00838237
716.654	0.0103021
717.839	0.00419465
719.024	-0.000766841
720.209	0.00445579
721.394	0.0163332
722.579	0.0255506
723.764	0.0291738
724.949	0.0330858
726.134	0.0395082
727.319	0.0422825
728.504	0.0401261
729.689	0.0419829
730.874	0.0462977
732.059	0.0536898
733.244	0.0574799
734.429	0.0566631
735.614	0.054272
736.799	0.0567951
737.984	0.0575684
739.169	0.0581661
740.354	0.0578192
741.539	0.0506612
742.724	0.04345
743.909	0.0440373
745.094	0.0429193
746.279	0.0354711
747.464	0.038216
748.649	0.037139
749.834	0.0389869
751.019	0.0377725
752.204	0.0431132
753.389	0.0404372
754.574	0.0370093
755.759	0.037388
756.944	0.0339791
758.129	0.0269905
759.314	0.0219059
760.499	0.0203733
761.684	0.0218047
762.869	0.0216142
764.054	0.0127044
765.239	0.00756392
766.424	0.0119796
767.609	0.00806349
768.794	0.00101445
769.979	-0.0012172
771.164	-0.0105657
772.349	-0.010108
773.534	-0.00145878
774.719	-0.000184877
775.904	0.00599916
777.089	0.0102579
778.274	0.00828926
779.459	0.0088944
780.644	0.00866949
781.829	0.00271544
783.014	0.00488565
784.199	0.0103454
785.384	0.0110919
786.569	0.0115062
787.754	0.00983781
788.939	0.0068798
790.124	0.00778363
791.309	0.00705057
792.494	0.00452009
793.679	0.00471978
794.864	0.00126322
796.049	-0.000337074
797.234	0.00374332
798.419	0.00406208
799.604	0.00278249
800.789	0.00857977
801.974	0.0126129
803.159	0.0239612
804.344	0.0363963
805.529	0.0589851
806.714	0.0878428
807.899	0.107416
809.084	0.134903
810.269	0.163931
811.454	0.191917
812.639	0.223353
813.823	0.254897
815.009	0.290406
816.194	0.325191
817.378	0.363666
818.564	0.39769
819.748	0.422039
820.933	0.447482
822.119	0.468268
823.303	0.477811
824.488	0.476324
825.674	0.477256
826.858	0.48717
828.044	0.484573
829.228	0.492315
830.413	0.49693
831.599	0.495436
832.783	0.503028
833.968	0.514813
835.153	0.526932
836.338	0.540512
837.523	0.561674
838.708	0.594668
839.893	0.630909
841.078	0.659778
842.263	0.689659
843.448	0.730411
844.633	0.769773
845.818	0.805107
847.003	0.842111
848.188	0.867186
849.373	0.894456
850.558	0.924302
851.743	0.942908
852.928	0.947168
854.113	0.948225
855.298	0.948074
856.483	0.941594
857.668	0.923381
858.853	0.906595
860.038	0.89423
861.223	0.87804
862.408	0.854358
863.593	0.828435
864.778	0.802278
865.963	0.773402
867.148	0.742509
868.333	0.708712
869.518	0.670884
870.703	0.636523
871.888	0.603114
873.073	0.570511
874.258	0.537408
875.443	0.51417
876.628	0.483664
877.813	0.443544
878.998	0.40413
880.183	0.376217
881.368	0.343361
882.553	0.313556
883.738	0.289345
884.923	0.266992
886.108	0.246799
887.293	0.232157
888.478	0.22291
889.663	0.215901
890.848	0.208169
892.033	0.200867
893.218	0.196349
894.403	0.197322
895.588	0.209089
896.773	0.222552
897.958	0.23137
899.143	0.230312
900.328	0.243808
901.513	0.257865
902.698	0.263821
903.883	0.278648
905.068	0.292781
906.253	0.305863
907.438	0.314308
908.623	0.325707
909.808	0.335342
910.993	0.348012
912.178	0.354859
913.363	0.357635
914.548	0.362675
915.733	0.373089
916.918	0.392134
918.103	0.407946
919.288	0.41628
920.473	0.425061
921.658	0.431422
922.843	0.433184
924.028	0.434815
925.213	0.434636
926.398	0.430533
927.583	0.422017
928.768	0.421226
929.953	0.409376
931.138	0.398772
932.323	0.388979
933.508	0.36347
934.693	0.342619
935.878	0.320522
937.063	0.308118
938.248	0.283488
939.433	0.261268
940.618	0.237796
941.803	0.219349
942.988	0.196252
944.173	0.175453
945.358	0.161938
946.543	0.150189
947.728	0.142694
948.913	0.137077
950.098	0.128459
951.283	0.121808
952.468	0.122772
953.653	0.121077
954.838	0.110575
956.023	0.104403
957.208	0.105843
958.393	0.104967
959.578	0.102277
960.763	0.106189
961.948	0.124216
963.133	0.133085
964.318	0.145959
965.503	0.158832
966.688	0.174835
967.873	0.18887
969.058	0.201689
970.243	0.22142
971.428	0.231546
972.613	0.251151
973.798	0.262969
974.983	0.277273
976.168	0.285587
977.353	0.30399
978.538	0.318
979.723	0.318678
980.908	0.325849
982.093	0.325425
983.278	0.320534
984.463	0.312056
985.648	0.305103
986.833	0.30033
988.018	0.293491
989.203	0.289743
990.388	0.286857
991.573	0.28286
992.758	0.280545
993.943	0.284842
995.128	0.286982
996.313	0.283609
997.498	0.281462
998.683	0.279534
999.868	0.280386
1001.05	0.283927
1002.24	0.287247
1003.42	0.290862
1004.61	0.289373
1005.79	0.287742
1006.98	0.288642
1008.16	0.286641
1009.35	0.285518
1010.53	0.281484
1011.72	0.267701
1012.9	0.25328
1014.09	0.254036
1015.27	0.256058
1016.46	0.254495
1017.64	0.251028
1018.83	0.251643
1020.01	0.254604
1021.2	0.258039
1022.38	0.26511
1023.57	0.275404
1024.75	0.291843
1025.94	0.30224
1027.12	0.325006
1028.31	0.350833
1029.49	0.379817
1030.68	0.412009
1031.86	0.438562
1033.05	0.460766
1034.23	0.485241
1035.42	0.517386
1036.6	0.548997
1037.79	0.580436
1038.97	0.608566
1040.16	0.638139
1041.34	0.672054
1042.53	0.697478
1043.71	0.72428
1044.9	0.745633
1046.08	0.76413
1047.27	0.78095
1048.45	0.794407
1049.64	0.804956
1050.82	0.818509
1052.01	0.825655
1053.19	0.828713
1054.38	0.831001
1055.56	0.823961
1056.75	0.815329
1057.93	0.812401
1059.12	0.808969
1060.3	0.801276
1061.49	0.791707
1062.67	0.77796
1063.86	0.765031
1065.04	0.757975
1066.23	0.747404
1067.41	0.734895
1068.6	0.726294
1069.78	0.717108
1070.97	0.707096
1072.15	0.696234
1073.34	0.68517
1074.52	0.674569
1075.71	0.654758
1076.89	0.632406
1078.08	0.61422
1079.26	0.596938
1080.45	0.581867
1081.63	0.570102
1082.82	0.551705
1084	0.535746
1085.19	0.523759
1086.37	0.505832
1087.56	0.488885
1088.74	0.48467
1089.93	0.477284
1091.11	0.476313
1092.3	0.481343
1093.48	0.483733
1094.67	0.479133
1095.85	0.479201
1097.04	0.481934
1098.22	0.483793
1099.41	0.477183
1100.59	0.473063
1101.78	0.475828
1102.96	0.47986
1104.15	0.482874
1105.33	0.487735
1106.52	0.480557
1107.7	0.471551
1108.89	0.468155
1110.07	0.459073
1111.26	0.450887
1112.44	0.450502
1113.63	0.440859
1114.81	0.432944
1116	0.419276
1117.18	0.41715
1118.37	0.409717
1119.55	0.394844
1120.74	0.374597
1121.92	0.354255
1123.11	0.327608
1124.29	0.309212
1125.48	0.288202
1126.66	0.259618
1127.85	0.23596
1129.03	0.216693
1130.22	0.193043
1131.4	0.17454
1132.59	0.153729
1133.77	0.131118
1134.96	0.103125
1136.14	0.0883069
1137.33	0.0748321
1138.51	0.0625189
1139.7	0.0514424
1140.88	0.0447809
1142.07	0.0353979
1143.25	0.0326653
1144.44	0.040186
1145.62	0.0323125
1146.81	0.0302688
1147.99	0.031009
1149.18	0.0258149
1150.36	0.023264
1151.55	0.0252991
1152.73	0.0304253
1153.92	0.0232919
1155.1	0.0251375
1156.29	0.0298983
1157.47	0.0285502
1158.66	0.033118
1159.84	0.033505
1161.03	0.0251151
1162.21	0.00979926
1163.4	0.00343742
1164.58	-0.00350747
1165.77	-0.00421449
1166.95	-0.00475347
1168.14	-0.00183052
1169.32	0.00174237
1170.51	0.00302692
1171.69	0.00372718
1172.88	0.00237948
1174.06	0.00648233
1175.25	0.00994944
1176.43	0.013662
1177.62	0.0187205
1178.8	0.0241935
1179.99	0.0336047
1181.17	0.0429911
1182.36	0.0468043
1183.54	0.0449393
1184.73	0.0431396
1185.91	0.043936
1187.1	0.0461758
1188.28	0.0512501
1189.47	0.0567516
1190.65	0.0590063
1191.84	0.0630996
1193.02	0.0651981
1194.21	0.0631376
1195.39	0.0650316
1196.58	0.0718907
1197.76	0.0785566
1198.95	0.0869349
1200.13	0.0930547
1201.32	0.10527
1202.5	0.119325
1203.69	0.123237
1204.87	0.123155
1206.06	0.125436
1207.24	0.129247
1208.43	0.127465
1209.61	0.141438
1210.8	0.141154
1211.98	0.142195
1213.17	0.145863
1214.35	0.144258
1215.54	0.146977
1216.72	0.139039
1217.91	0.139
1219.09	0.138099
1220.28	0.1232
1221.46	0.124377
1222.65	0.137663
1223.83	0.14569
1225.02	0.156806
1226.2	0.162018
1227.39	0.152294
1228.57	0.168685
1229.76	0.183441
1230.94	0.193455
1232.13	0.193188
1233.31	0.196313
1234.5	0.212277
1235.68	0.22184
1236.87	0.23241
1238.05	0.248184
1239.24	0.252608
1240.42	0.24862
1241.61	0.248137
1242.79	0.251417
1243.98	0.258493
1245.16	0.261909
1246.35	0.261887
1247.53	0.266035
1248.72	0.275877
1249.9	0.288523
1251.09	0.284982
1252.27	0.279384
1253.46	0.283553
1254.64	0.283121
1255.83	0.283011
1257.01	0.284277
1258.2	0.287905
1259.38	0.290344
1260.57	0.290364
1261.75	0.293918
1262.94	0.297825
1264.12	0.293079
1265.31	0.287691
1266.49	0.278289
1267.68	0.27448
1268.86	0.288387
1270.05	0.289743
1271.23	0.285231
1272.42	0.28349
1273.6	0.284137
1274.79	0.286993
1275.97	0.284528
1277.16	0.28015
1278.34	0.273981
1279.53	0.265723
1280.71	0.259658
1281.9	0.260038
1283.08	0.260969
1284.27	0.259818
1285.45	0.25528
1286.64	0.250444
1287.82	0.244656
1289.01	0.247128
1290.19	0.250375
1291.38	0.245668
1292.56	0.245548
1293.75	0.246463
1294.93	0.249672
1296.12	0.249353
1297.3	0.251202
1298.49	0.251505
1299.67	0.246046
1300.86	0.245304
1302.04	0.24429
1303.23	0.233414
1304.41	0.231309
1305.6	0.228441
1306.78	0.218853
1307.97	0.22136
1309.15	0.224556
1310.34	0.217382
1311.52	0.220275
1312.71	0.217153
1313.89	0.217771
1315.08	0.21621
1316.26	0.216415
1317.45	0.219318
1318.63	0.222879
1319.82	0.226879
1321	0.227539
1322.19	0.228513
1323.37	0.226135
1324.56	0.223417
1325.74	0.220342
1326.93	0.216073
1328.11	0.20951
1329.3	0.209625
1330.48	0.208591
1331.67	0.210499
1332.85	0.209608
1334.04	0.201958
1335.22	0.19331
1336.41	0.190425
1337.59	0.195461
1338.78	0.201238
1339.96	0.204952
1341.15	0.204943
1342.33	0.200333
1343.52	0.202224
1344.7	0.202076
1345.89	0.194981
1347.07	0.192402
1348.26	0.189974
1349.44	0.186121
1350.63	0.1889
1351.81	0.193294
1353	0.194733
1354.18	0.19194
1355.37	0.183288
1356.55	0.17362
1357.74	0.170126
1358.92	0.1723
1360.11	0.171993
1361.29	0.169175
1362.48	0.172046
1363.66	0.173642
1364.85	0.170794
1366.03	0.172533
1367.22	0.170654
1368.4	0.167496
1369.59	0.166526
1370.77	0.161783
1371.96	0.160133
1373.14	0.162982
1374.33	0.168508
1375.51	0.172234
1376.7	0.168944
1377.88	0.172082
1379.07	0.176474
1380.25	0.176581
1381.44	0.177952
1382.62	0.1733
1383.81	0.16987
1384.99	0.173701
1386.18	0.175183
1387.36	0.176946
1388.55	0.181679
1389.73	0.177585
1390.92	0.178065
1392.1	0.171758
1393.29	0.167591
1394.47	0.166611
1395.66	0.162265
1396.84	0.156761
1398.03	0.151833
1399.21	0.151972
1400.4	0.153613
1401.58	0.148765
1402.77	0.144204
1403.95	0.145459
1405.14	0.141857
1406.32	0.146133
1407.51	0.144236
1408.69	0.139457
1409.88	0.143745
1411.06	0.139586
1412.25	0.141411
1413.43	0.140574
1414.62	0.136725
1415.8	0.136444
1416.99	0.136282
1418.17	0.137906
1419.36	0.136937
1420.54	0.133911
1421.73	0.134204
1422.91	0.131204
1424.1	0.131827
1425.28	0.143345
1426.47	0.145052
1427.65	0.151843
1428.84	0.15059
1430.02	0.148521
1431.21	0.150949
1432.39	0.153497
1433.58	0.161554
1434.76	0.163638
1435.95	0.167327
1437.13	0.175155
1438.32	0.182586
1439.5	0.199425
1440.69	0.208775
1441.87	0.216682
1443.06	0.221308
1444.24	0.231266
1445.43	0.246888
1446.61	0.265712
1447.8	0.288575
1448.98	0.31138
1450.17	0.323159
1451.35	0.344904
1452.54	0.373547
1453.72	0.394481
1454.91	0.412816
1456.09	0.426655
1457.28	0.442554
1458.46	0.458826
1459.65	0.47692
1460.83	0.495675
1462.02	0.50919
1463.2	0.515411
1464.39	0.524264
1465.57	0.531411
1466.76	0.533032
1467.94	0.52895
1469.13	0.513382
1470.31	0.501325
1471.5	0.488694
1472.68	0.475807
1473.87	0.457109
1475.05	0.436251
1476.24	0.407076
1477.42	0.370095
1478.61	0.339224
1479.79	0.31443
1480.98	0.279779
1482.16	0.24092
1483.35	0.209604
1484.53	0.183884
1485.72	0.163877
1486.9	0.144237
1488.09	0.123801
1489.27	0.105363
1490.46	0.0867146
1491.64	0.0717102
1492.83	0.0656595
1494.01	0.0634486
1495.2	0.0598976
1496.38	0.0517987
1497.57	0.0464638
1498.75	0.0459859
1499.94	0.0465875
1501.12	0.0426979
1502.31	0.0346935
1503.49	0.0281334
1504.68	0.021269
1505.86	0.0124967
1507.05	0.012329
1508.23	0.0105959
1509.42	0.00627178
1510.6	0.00291851
1511.79	-0.00501279
1512.97	-0.00333617
1514.16	5.93741e-005
1515.34	0.000107212
1516.53	0.000181721
1517.71	0.00370833
1518.9	0.0070676
1520.08	0.0119902
1521.27	0.0213507
1522.45	0.0185981
1523.64	0.0212246
1524.82	0.0199673
1526.01	0.0208588
1527.19	0.0228108
1528.38	0.0228693
1529.56	0.0208084
1530.75	0.0205843
1531.93	0.0183303
1533.12	0.0132425
1534.3	0.00991578
1535.49	0.010108
1536.67	0.00446276
1537.86	0.00657534
1539.04	0.00705211
1540.23	0.00391859
1541.41	0.00665799
1542.6	0.00834575
1543.78	0.0112833
1544.97	0.0144008
1546.15	0.0150575
1547.34	0.0137616
1548.52	0.0135915
1549.71	0.0134122
1550.89	0.0164018
1552.08	0.0161253
1553.26	0.0159601
1554.45	0.0130323
1555.63	0.0180675
1556.82	0.0181276
1558	0.0134897
1559.19	0.00915579
1560.37	0.0063338
1561.56	0.00464705
1562.74	-9.0808e-007
1563.93	-0.000576295
1565.11	0.00440149
1566.3	0.00573806
1567.48	0.00272938
1568.67	0.00134111
1569.85	-0.000551261
1571.04	-0.0010968
1572.22	2.01195e-005
1573.41	0.00105864
1574.59	0.0045501
1575.78	0.00537291
1576.96	0.00401226
1578.15	0.00548067
1579.33	0.0076761
1580.52	0.00880282
1581.7	0.0046346
1582.89	0.00228687
1584.07	0.00138966
1585.26	0.00112145
1586.44	0.00132502
1587.63	0.00061374
1588.81	-0.000487469
1590	-0.00129188
1591.18	0.0010766
1592.37	0.00479615
1593.55	0.00359184
1594.74	0.00429785
1595.92	0.00698072
1597.11	0.0104583
1598.29	0.0133078
1599.48	0.0170785
1600.66	0.0179169
1601.85	0.0198329
1603.03	0.0233593
1604.22	0.0310966
1605.4	0.0397052
1606.59	0.0422362
1607.77	0.0396751
1608.96	0.0421621
1610.14	0.0490974
1611.33	0.0492831
1612.51	0.0496351
1613.7	0.050696
1614.88	0.05187
1616.07	0.0557693
1617.25	0.0615251
1618.44	0.0650419
1619.62	0.0655189
1620.81	0.0600705
1621.99	0.0553678
1623.18	0.0583858
1624.36	0.0618185
1625.55	0.058971
1626.73	0.0594442
1627.92	0.0616238
1629.1	0.0599662
1630.29	0.0602758
1631.47	0.0617801
1632.66	0.0599237
1633.84	0.0589381
1635.03	0.0600636
1636.21	0.0543629
1637.4	0.0554873
1638.58	0.0566581
1639.77	0.0556397
1640.95	0.0582097
1642.14	0.0578955
1643.32	0.0575622
1644.51	0.0577093
1645.69	0.0553931
1646.88	0.0557721
1648.06	0.0610562
1649.25	0.0580875
1650.43	0.0483298
1651.62	0.0520855
1652.8	0.0614461
1653.99	0.0627745
1655.17	0.0665024
1656.36	0.0693345
1657.54	0.0700664
1658.73	0.0688393
1659.91	0.070374
1661.1	0.0807979
1662.28	0.0950199
1663.47	0.0927184
1664.65	0.0917125
1665.84	0.0998819
1667.02	0.103704
1668.21	0.10092
1669.39	0.100269
1670.58	0.0965178
1671.76	0.0962621
1672.95	0.0956955
1674.13	0.103457
1675.32	0.105909
1676.5	0.103635
1677.69	0.0903241
1678.87	0.0856873
1680.06	0.0874559
1681.24	0.08559
1682.43	0.0846731
1683.61	0.0841303
1684.8	0.0852472
1685.98	0.0797692
1687.17	0.0788036
1688.35	0.0769178
1689.54	0.0707673
1690.72	0.062374
1691.91	0.0621617
1693.09	0.0632946
1694.28	0.0646331
1695.46	0.0566325
1696.65	0.0567738
1697.83	0.0581036
1699.02	0.0594957
1700.2	0.0600738
1701.39	0.0618868
1702.57	0.06284
1703.76	0.0586597
1704.94	0.0538166
1706.13	0.0590071
1707.31	0.0542844
1708.5	0.0552778
1709.68	0.0608771
1710.87	0.0632382
1712.05	0.0624738
1713.24	0.0573354
1714.42	0.0599584
1715.61	0.0597254
1716.79	0.0583914
1717.98	0.061308
1719.16	0.0669063
1720.35	0.0690845
1721.53	0.0705327
1722.72	0.071283
1723.9	0.0681205
1725.09	0.0616461
1726.27	0.0614138
1727.46	0.0591961
1728.64	0.0681718
1729.83	0.0687319
1731.01	0.0657944
1732.2	0.0681002
1733.38	0.0670347
1734.57	0.0664884
1735.75	0.0663937
1736.94	0.0708276
1738.12	0.0723051
1739.31	0.076527
1740.49	0.079995
1741.68	0.0796092
1742.86	0.075682
1744.05	0.0730363
1745.23	0.0692349
1746.42	0.0685814
1747.6	0.0610335
1748.79	0.0615206
1749.97	0.0615561
1751.16	0.0602511
1752.34	0.0585282
1753.53	0.0544438
1754.71	0.0514423
1755.9	0.0527059
1757.08	0.0494536
1758.27	0.051256
1759.45	0.0472122
1760.64	0.0450868
1761.82	0.0471846
1763.01	0.0480488
1764.19	0.0451033
1765.38	0.0410203
1766.56	0.0378875
1767.74	0.0338645
1768.93	0.0356655
1770.12	0.0378369
1771.3	0.0369751
1772.49	0.036377
1773.67	0.0333488
1774.85	0.0333634
1776.04	0.0355914
1777.23	0.0333579
1778.41	0.0339425
1779.6	0.036103
1780.78	0.0365509
1781.97	0.0375264
1783.15	0.0374523
1784.34	0.0339391
1785.52	0.0302219
1786.7	0.0248903
1787.89	0.0187213
1789.08	0.0156471
1790.26	0.0160353
1791.45	0.013211
1792.63	0.00771731
1793.81	0.000342416
1795	-0.00630136
