405	0.0781768
406.185	0.113213
407.37	0.140645
408.555	0.16125
409.74	0.175706
410.925	0.187942
412.11	0.206818
413.295	0.234094
414.48	0.233701
415.665	0.244431
416.85	0.241175
418.035	0.249395
419.22	0.260012
420.405	0.257135
421.59	0.242127
422.775	0.232094
423.96	0.227097
425.145	0.20663
426.33	0.195452
427.515	0.199164
428.7	0.180239
429.885	0.159902
431.07	0.153119
432.255	0.140067
433.44	0.108616
434.625	0.103713
435.81	0.0802209
436.995	0.0720177
438.18	0.0592081
439.365	0.0445291
440.55	0.0354849
441.735	0.030071
442.92	0.01964
444.105	0.0120501
445.29	0.0175503
446.475	0.00568873
447.66	-0.0105657
448.845	-0.00305536
450.03	0.00771675
451.215	0.00844368
452.4	0.0140048
453.585	0.0206977
454.77	0.00911189
455.955	0.0397184
457.14	0.0493155
458.325	0.0547236
459.51	0.0658327
460.695	0.0885784
461.88	0.122473
463.065	0.158697
464.25	0.189142
465.435	0.220471
466.62	0.271478
467.805	0.319091
468.99	0.372257
470.175	0.427685
471.36	0.477352
472.545	0.524502
473.73	0.584397
474.915	0.652252
476.1	0.686276
477.285	0.737783
478.47	0.784386
479.655	0.832678
480.84	0.872408
482.025	0.892945
483.21	0.900268
484.395	0.909884
485.58	0.913888
486.765	0.919713
487.95	0.915048
489.135	0.892464
490.32	0.869853
491.505	0.847479
492.69	0.814387
493.875	0.769333
495.06	0.730334
496.245	0.712981
497.43	0.677539
498.615	0.647252
499.8	0.604807
500.985	0.560264
502.17	0.523084
503.355	0.490314
504.54	0.457873
505.725	0.429708
506.91	0.396273
508.095	0.370223
509.28	0.335395
510.465	0.311204
511.65	0.286264
512.835	0.261072
514.02	0.2421
515.205	0.221896
516.39	0.189163
517.575	0.168608
518.76	0.150868
519.945	0.135521
521.13	0.133411
522.315	0.127551
523.5	0.129074
524.685	0.130721
525.87	0.121017
527.055	0.107559
528.24	0.110376
529.425	0.122968
530.61	0.124685
531.794	0.135301
532.98	0.143668
534.165	0.149161
535.35	0.155758
536.535	0.165212
537.719	0.1752
538.905	0.182428
540.09	0.184146
541.274	0.163929
542.46	0.164524
543.644	0.176335
544.829	0.178542
546.015	0.197104
547.199	0.209122
548.384	0.208604
549.57	0.207073
550.754	0.200635
551.94	0.199248
553.124	0.193764
554.309	0.202085
555.495	0.205999
556.679	0.194031
557.864	0.191068
559.049	0.192563
560.234	0.193442
561.419	0.196344
562.604	0.192598
563.789	0.171036
564.974	0.179377
566.159	0.16013
567.344	0.149028
568.529	0.13682
569.714	0.133238
570.899	0.127562
572.084	0.124946
573.269	0.130892
574.454	0.131173
575.639	0.127721
576.824	0.142925
578.009	0.128258
579.194	0.111107
580.379	0.126601
581.564	0.140219
582.749	0.146955
583.934	0.140723
585.119	0.124753
586.304	0.11566
587.489	0.11643
588.674	0.117458
589.859	0.110679
591.044	0.10705
592.229	0.108175
593.414	0.101964
594.599	0.092786
595.784	0.0809303
596.969	0.0759063
598.154	0.08345
599.339	0.0831718
600.524	0.051747
601.709	0.0376386
602.894	0.024544
604.079	0.0307002
605.264	0.0250882
606.449	0.0153553
607.634	0.0139394
608.819	0.0198488
610.004	0.0292965
611.189	0.0333459
612.374	0.0225911
613.559	0.0148486
614.744	0.0146238
615.929	0.0224227
617.114	0.0143025
618.299	0.0129199
619.484	0.021302
620.669	0.0300099
621.854	0.0376671
623.039	0.0420372
624.224	0.0428753
625.409	0.0448262
626.594	0.0413268
627.779	0.0260581
628.964	0.0150839
630.149	-0.000610208
631.334	-0.00488749
632.519	-0.00186719
633.704	0.00908854
634.889	0.0154871
636.074	0.0207917
637.259	0.0274287
638.444	0.0290907
639.629	0.0312992
640.814	0.0246111
641.999	0.0379564
643.184	0.0369664
644.369	0.0487275
645.554	0.0604078
646.739	0.0741267
647.924	0.0769952
649.109	0.0795945
650.294	0.089855
651.479	0.0999285
652.664	0.104698
653.849	0.108517
655.034	0.113836
656.219	0.111157
657.404	0.121872
658.589	0.126889
659.774	0.135328
660.959	0.139293
662.144	0.142745
663.329	0.157212
664.514	0.16754
665.699	0.165729
666.884	0.177456
668.069	0.203436
669.254	0.212889
670.439	0.228176
671.624	0.227842
672.809	0.226615
673.994	0.231612
675.179	0.22482
676.364	0.222767
677.549	0.225643
678.734	0.227437
679.919	0.226248
681.104	0.221418
682.289	0.215198
683.474	0.211251
684.659	0.219108
685.844	0.219685
687.029	0.203677
688.214	0.187693
689.399	0.167989
690.584	0.167705
691.769	0.15713
692.954	0.132053
694.139	0.123656
695.324	0.127054
696.509	0.115501
697.694	0.112091
698.879	0.0986157
700.064	0.0897525
701.249	0.0810763
702.434	0.0613209
703.619	0.0467588
704.804	0.0326005
705.989	0.017628
707.174	0.0112143
708.359	0.0118595
709.544	0.0141593
710.729	0.0200868
711.914	0.0321901
713.099	0.0412111
714.284	0.0346755
715.469	0.0270042
716.654	0.0185154
717.839	0.0102221
719.024	0.00554379
720.209	0.01515
721.394	0.0273303
722.579	0.03356
723.764	0.042001
724.949	0.0560117
726.134	0.0646203
727.319	0.0641819
728.504	0.0584555
729.689	0.0412346
730.874	0.035771
732.059	0.0437591
733.244	0.0424958
734.429	0.0522359
735.614	0.0454677
736.799	0.0552378
737.984	0.0581686
739.169	0.0538412
740.354	0.0457375
741.539	0.0432086
742.724	0.0434723
743.909	0.0359269
745.094	0.029961
746.279	0.0381378
747.464	0.0360654
748.649	0.0411966
749.834	0.0523986
751.019	0.0447664
752.204	0.0427314
753.389	0.039547
754.574	0.0429862
755.759	0.0373594
756.944	0.0423428
758.129	0.0485502
759.314	0.0498917
760.499	0.0470162
761.684	0.0423435
762.869	0.0426791
764.054	0.042801
765.239	0.0378427
766.424	0.0281639
767.609	0.0222884
768.794	0.011618
769.979	0.00593433
771.164	0.00595925
772.349	0.00127658
773.534	0.00592636
774.719	0.0176996
775.904	0.013519
777.089	0.0130377
778.274	0.0168103
779.459	0.0198815
780.644	0.0258621
781.829	0.0240517
783.014	0.0317109
784.199	0.0293599
785.384	0.0383055
786.569	0.0352216
787.754	0.0450079
788.939	0.0407671
790.124	0.0420031
791.309	0.0501409
792.494	0.0517808
793.679	0.0462317
794.864	0.0477337
796.049	0.0471944
797.234	0.0430241
798.419	0.0458305
799.604	0.060596
800.789	0.0777225
801.974	0.0832938
803.159	0.0946226
804.344	0.107856
805.529	0.136916
806.714	0.16169
807.899	0.198906
809.084	0.228034
810.269	0.257856
811.453	0.264906
812.639	0.294894
813.824	0.321403
815.008	0.345465
816.194	0.377919
817.379	0.403189
818.563	0.417861
819.749	0.430154
820.933	0.439144
822.118	0.449993
823.304	0.458993
824.488	0.453424
825.674	0.444728
826.858	0.438374
828.043	0.435492
829.229	0.428964
830.413	0.448254
831.598	0.459845
832.784	0.478489
833.968	0.494956
835.153	0.508227
836.338	0.524295
837.523	0.545312
838.708	0.577615
839.893	0.615476
841.078	0.652798
842.263	0.696628
843.448	0.742803
844.633	0.778659
845.818	0.816163
847.003	0.855814
848.188	0.878695
849.373	0.913921
850.558	0.941912
851.743	0.926651
852.928	0.93754
854.113	0.942115
855.298	0.948225
856.483	0.946891
857.668	0.929066
858.853	0.911039
860.038	0.883531
861.223	0.848014
862.408	0.819092
863.593	0.792524
864.778	0.76158
865.963	0.733139
867.148	0.702248
868.333	0.654899
869.518	0.614174
870.703	0.609269
871.888	0.566031
873.073	0.529409
874.258	0.483515
875.443	0.430213
876.628	0.414557
877.813	0.389768
878.998	0.370104
880.183	0.346533
881.368	0.320405
882.553	0.303331
883.738	0.282652
884.923	0.257959
886.108	0.238796
887.293	0.228894
888.478	0.213253
889.663	0.204884
890.848	0.206035
892.033	0.204801
893.218	0.206494
894.403	0.202971
895.588	0.202633
896.773	0.203946
897.958	0.205158
899.143	0.221577
900.328	0.233061
901.513	0.244364
902.698	0.256714
903.883	0.290261
905.068	0.303958
906.253	0.323788
907.438	0.335218
908.623	0.334368
909.808	0.342336
910.993	0.351294
912.178	0.376873
913.363	0.389886
914.548	0.396355
915.733	0.403382
916.918	0.403333
918.103	0.408387
919.288	0.412266
920.473	0.409412
921.658	0.407627
922.843	0.407614
924.028	0.410142
925.213	0.395813
926.398	0.392311
927.583	0.390955
928.768	0.39873
929.953	0.396234
931.138	0.374489
932.323	0.355091
933.508	0.346926
934.693	0.331288
935.878	0.30446
937.063	0.270864
938.248	0.24314
939.433	0.209518
940.618	0.181205
941.803	0.146974
942.988	0.127804
944.173	0.116069
945.358	0.109086
946.543	0.0953076
947.728	0.0734681
948.913	0.0638909
950.098	0.0705958
951.283	0.067876
952.468	0.0499383
953.653	0.0414315
954.838	0.0495248
956.023	0.0668399
957.208	0.0848407
958.393	0.0974925
959.578	0.119725
960.763	0.136388
961.948	0.143237
963.133	0.149971
964.318	0.152806
965.503	0.171695
966.688	0.190954
967.873	0.197655
969.058	0.204753
970.243	0.22237
971.428	0.254758
972.613	0.276177
973.798	0.276591
974.983	0.266373
976.168	0.277022
977.353	0.266687
978.538	0.250096
979.723	0.252902
980.908	0.248645
982.093	0.257714
983.278	0.261537
984.463	0.252594
985.648	0.252673
986.833	0.245825
988.018	0.240841
989.203	0.240995
990.388	0.233104
991.573	0.229531
992.758	0.245504
993.943	0.260786
995.128	0.269067
996.313	0.282971
997.498	0.295261
998.683	0.30512
999.868	0.308091
1001.05	0.293908
1002.24	0.289267
1003.42	0.294561
1004.61	0.289361
1005.79	0.28907
1006.98	0.28381
1008.16	0.28708
1009.35	0.296343
1010.53	0.289914
1011.72	0.277986
1012.9	0.274961
1014.09	0.281834
1015.27	0.289278
1016.46	0.283455
1017.64	0.271135
1018.83	0.29062
1020.01	0.305413
1021.2	0.311828
1022.38	0.338623
1023.57	0.355478
1024.75	0.372837
1025.94	0.39584
1027.12	0.390288
1028.31	0.406058
1029.49	0.419145
1030.68	0.447742
1031.86	0.469222
1033.05	0.492277
1034.23	0.523965
1035.42	0.563707
1036.6	0.587501
1037.79	0.610007
1038.97	0.632909
1040.16	0.640893
1041.34	0.665007
1042.53	0.682712
1043.71	0.692727
1044.9	0.735798
1046.08	0.764526
1047.27	0.779185
1048.45	0.783444
1049.64	0.786176
1050.82	0.79154
1052.01	0.79358
1053.19	0.793364
1054.38	0.79315
1055.56	0.791228
1056.75	0.785062
1057.93	0.787357
1059.12	0.778408
1060.3	0.770302
1061.49	0.770101
1062.67	0.748389
1063.86	0.728979
1065.04	0.731443
1066.23	0.736632
1067.41	0.731779
1068.6	0.71363
1069.78	0.692343
1070.97	0.677444
1072.15	0.667921
1073.34	0.654704
1074.52	0.638248
1075.71	0.629643
1076.89	0.614456
1078.08	0.594932
1079.26	0.572553
1080.45	0.557947
1081.63	0.543319
1082.82	0.52684
1084	0.510519
1085.19	0.489201
1086.37	0.479203
1087.56	0.470818
1088.74	0.463547
1089.93	0.454725
1091.11	0.439837
1092.3	0.425245
1093.48	0.41648
1094.67	0.397876
1095.85	0.396496
1097.04	0.396256
1098.22	0.39934
1099.41	0.402378
1100.59	0.405712
1101.78	0.394098
1102.96	0.396963
1104.15	0.400932
1105.33	0.408305
1106.52	0.414403
1107.7	0.409056
1108.89	0.410496
1110.07	0.429894
1111.26	0.420994
1112.44	0.437222
1113.63	0.440698
1114.81	0.432696
1116	0.420886
1117.18	0.398399
1118.37	0.384903
1119.55	0.366759
1120.74	0.346062
1121.92	0.320994
1123.11	0.289963
1124.29	0.262726
1125.48	0.24057
1126.66	0.220709
1127.85	0.189411
1129.03	0.166023
1130.22	0.139693
1131.4	0.11922
1132.59	0.108235
1133.77	0.0915215
1134.96	0.0843451
1136.14	0.0651347
1137.33	0.0598337
1138.51	0.0609027
1139.7	0.0645672
1140.88	0.0635713
1142.07	0.0535673
1143.25	0.0408499
1144.44	0.0297663
1145.62	0.0364558
1146.81	0.055326
1147.99	0.063806
1149.18	0.0569575
1150.36	0.0560263
1151.55	0.0528185
1152.73	0.0494354
1153.92	0.0570351
1155.1	0.0509125
1156.29	0.0365064
1157.47	0.0260499
1158.66	0.0236131
1159.84	0.0203452
1161.03	0.031271
1162.21	0.0353716
1163.4	0.0210973
1164.58	0.00322768
1165.77	-0.00237879
1166.95	0.00325511
1168.14	-0.00210723
1169.32	0.00312847
1170.51	0.0119574
1171.69	0.00845243
1172.88	0.0144144
1174.06	0.0237833
1175.25	0.0279919
1176.43	0.0395932
1177.62	0.0511159
1178.8	0.0422866
1179.99	0.0400226
1181.17	0.0474677
1182.36	0.052974
1183.54	0.0555233
1184.73	0.0533128
1185.91	0.0518657
1187.1	0.048642
1188.28	0.0462485
1189.47	0.0450203
1190.65	0.0454257
1191.84	0.0522069
1193.02	0.0684345
1194.21	0.0616917
1195.39	0.0660575
1196.58	0.084779
1197.76	0.0894861
1198.95	0.0807651
1200.13	0.068157
1201.32	0.0665574
1202.5	0.0712595
1203.69	0.0819588
1204.87	0.0794124
1206.06	0.0804076
1207.24	0.0753715
1208.43	0.072208
1209.61	0.071466
1210.8	0.0667682
1211.98	0.0635496
1213.17	0.0641321
1214.35	0.065257
1215.54	0.0772713
1216.72	0.0780589
1217.91	0.0900762
1219.09	0.0881073
1220.28	0.0992033
1221.46	0.103415
1222.65	0.115615
1223.83	0.118993
1225.02	0.136056
1226.2	0.144864
1227.39	0.146684
1228.57	0.15146
1229.76	0.163701
1230.94	0.149266
1232.13	0.149412
1233.31	0.156276
1234.5	0.165993
1235.68	0.158727
1236.87	0.157614
1238.05	0.157463
1239.24	0.153508
1240.42	0.158118
1241.61	0.164721
1242.79	0.174503
1243.98	0.175922
1245.16	0.164441
1246.35	0.153584
1247.53	0.161177
1248.72	0.176689
1249.9	0.184671
1251.09	0.186362
1252.27	0.19663
1253.46	0.210202
1254.64	0.214264
1255.83	0.214115
1257.01	0.203115
1258.2	0.203454
1259.38	0.214742
1260.57	0.212864
1261.75	0.215983
1262.94	0.218881
1264.12	0.232811
1265.31	0.231468
1266.49	0.22242
1267.68	0.195858
1268.86	0.188514
1270.05	0.192959
1271.23	0.18269
1272.42	0.16857
1273.6	0.174056
1274.79	0.18297
1275.97	0.173478
1277.16	0.151828
1278.34	0.152892
1279.53	0.162794
1280.71	0.158073
1281.9	0.150372
1283.08	0.149811
1284.27	0.158816
1285.45	0.175539
1286.64	0.175868
1287.82	0.173869
1289.01	0.181288
1290.19	0.191129
1291.38	0.194188
1292.56	0.203759
1293.75	0.217457
1294.93	0.221306
1296.12	0.212884
1297.3	0.229082
1298.49	0.247004
1299.67	0.253142
1300.86	0.252382
1302.04	0.246551
1303.23	0.248085
1304.41	0.243408
1305.6	0.239289
1306.78	0.248868
1307.97	0.247351
1309.15	0.249087
1310.34	0.233923
1311.52	0.238729
1312.71	0.251202
1313.89	0.242325
1315.08	0.226794
1316.26	0.217275
1317.45	0.216561
1318.63	0.220203
1319.82	0.225145
1321	0.239434
1322.19	0.259787
1323.37	0.256949
1324.56	0.254951
1325.74	0.251816
1326.93	0.25336
1328.11	0.249554
1329.3	0.238934
1330.48	0.244483
1331.67	0.238773
1332.85	0.252176
1334.04	0.249587
1335.22	0.258025
1336.41	0.26215
1337.59	0.263917
1338.78	0.254209
1339.96	0.259277
1341.15	0.262448
1342.33	0.259529
1343.52	0.257124
1344.7	0.253788
1345.89	0.246538
1347.07	0.240077
1348.26	0.237421
1349.44	0.23097
1350.63	0.22085
1351.81	0.215219
1353	0.209186
1354.18	0.208233
1355.37	0.208308
1356.55	0.197488
1357.74	0.197415
1358.92	0.188628
1360.11	0.195415
1361.29	0.1912
1362.48	0.200878
1363.66	0.192794
1364.85	0.189613
1366.03	0.189662
1367.22	0.195193
1368.4	0.195224
1369.59	0.191893
1370.77	0.186418
1371.96	0.171572
1373.14	0.161766
1374.33	0.159307
1375.51	0.165877
1376.7	0.170799
1377.88	0.16801
1379.07	0.169764
1380.25	0.175389
1381.44	0.183123
1382.62	0.193353
1383.81	0.1902
1384.99	0.197978
1386.18	0.202077
1387.36	0.200013
1388.55	0.20765
1389.73	0.224129
1390.92	0.230529
1392.1	0.229094
1393.29	0.224362
1394.47	0.229193
1395.66	0.229191
1396.84	0.221164
1398.03	0.219434
1399.21	0.218967
1400.4	0.214435
1401.58	0.209304
1402.77	0.203868
1403.95	0.200847
1405.14	0.212099
1406.32	0.201122
1407.51	0.196201
1408.69	0.195406
1409.88	0.18923
1411.06	0.183868
1412.25	0.179595
1413.43	0.190059
1414.62	0.197736
1415.8	0.195864
1416.99	0.190909
1418.17	0.18212
1419.36	0.183777
1420.54	0.188717
1421.73	0.173069
1422.91	0.172076
1424.1	0.17128
1425.28	0.162415
1426.47	0.169304
1427.65	0.178879
1428.84	0.18782
1430.02	0.188609
1431.21	0.184939
1432.39	0.185656
1433.58	0.192596
1434.76	0.212827
1435.95	0.227913
1437.13	0.237649
1438.32	0.247883
1439.5	0.260628
1440.69	0.277333
1441.87	0.292786
1443.06	0.302014
1444.24	0.31402
1445.43	0.316046
1446.61	0.324779
1447.8	0.34288
1448.98	0.368219
1450.17	0.392782
1451.35	0.409505
1452.54	0.416073
1453.72	0.425946
1454.91	0.44655
1456.09	0.461073
1457.28	0.467367
1458.46	0.477037
1459.65	0.495779
1460.83	0.510045
1462.02	0.523832
1463.2	0.530232
1464.39	0.53126
1465.57	0.523555
1466.76	0.508199
1467.94	0.496625
1469.13	0.49868
1470.31	0.494549
1471.5	0.483943
1472.68	0.47336
1473.87	0.456712
1475.05	0.434355
1476.24	0.408425
1477.42	0.377404
1478.61	0.349403
1479.79	0.328706
1480.98	0.297895
1482.16	0.270756
1483.35	0.248778
1484.53	0.233286
1485.72	0.208235
1486.9	0.185381
1488.09	0.170668
1489.27	0.157433
1490.46	0.15319
1491.64	0.147477
1492.83	0.133622
1494.01	0.126234
1495.2	0.115732
1496.38	0.105753
1497.57	0.109889
1498.75	0.107901
1499.94	0.111422
1501.12	0.110739
1502.31	0.106049
1503.49	0.100725
1504.68	0.0950026
1505.86	0.0913488
1507.05	0.0850686
1508.23	0.0922945
1509.42	0.0990518
1510.6	0.0891778
1511.79	0.0915803
1512.97	0.085175
1514.16	0.0750975
1515.34	0.0750178
1516.53	0.0674372
1517.71	0.0596726
1518.9	0.0567578
1520.08	0.0553817
1521.27	0.0454506
1522.45	0.0340858
1523.64	0.0283682
1524.82	0.0192241
1526.01	0.0177545
1527.19	0.0167492
1528.38	0.0144511
1529.56	0.0174846
1530.75	0.021906
1531.93	0.0161663
1533.12	0.0161799
1534.3	0.00708842
1535.49	0.00162265
1536.67	0.00877369
1537.86	0.0134936
1539.04	0.014318
1540.23	0.0159177
1541.41	0.0191534
1542.6	0.0202862
1543.78	0.0254412
1544.97	0.0323846
1546.15	0.0307634
1547.34	0.0373096
1548.52	0.0466934
1549.71	0.0461938
1550.89	0.0558826
1552.08	0.0610377
1553.26	0.0492516
1554.45	0.0460809
1555.63	0.042937
1556.82	0.0349057
1558	0.0293141
1559.19	0.0282105
1560.37	0.0277667
1561.56	0.0250957
1562.74	0.0287597
1563.93	0.0223818
1565.11	0.024111
1566.3	0.0279432
1567.48	0.0294084
1568.67	0.0326551
1569.85	0.0380733
1571.04	0.0407054
1572.22	0.0438262
1573.41	0.0481255
1574.59	0.0480547
1575.78	0.0529636
1576.96	0.0537359
1578.15	0.0563774
1579.33	0.0565345
1580.52	0.0548867
1581.7	0.0507971
1582.89	0.0530256
1584.07	0.0544138
1585.26	0.0526692
1586.44	0.0498106
1587.63	0.0494652
1588.81	0.0549251
1590	0.0557352
1591.18	0.0538954
1592.37	0.04916
1593.55	0.0473095
1594.74	0.0439993
1595.92	0.0435591
1597.11	0.0448831
1598.29	0.0449311
1599.48	0.0435052
1600.66	0.0512393
1601.85	0.0474622
1603.03	0.0515041
1604.22	0.0522828
1605.4	0.0528336
1606.59	0.0547996
1607.77	0.0576762
1608.96	0.0590166
1610.14	0.0629027
1611.33	0.0687087
1612.51	0.0688571
1613.7	0.0766378
1614.88	0.0743433
1616.07	0.0667715
1617.25	0.0636347
1618.44	0.0689553
1619.62	0.0722956
1620.81	0.074629
1621.99	0.0726993
1623.18	0.0692895
1624.36	0.0665792
1625.55	0.0671628
1626.73	0.059084
1627.92	0.0526932
1629.1	0.0509646
1630.29	0.0547953
1631.47	0.0630344
1632.66	0.0646174
1633.84	0.0682994
1635.03	0.0616055
1636.21	0.0573208
1637.4	0.0590722
1638.58	0.059763
1639.77	0.0624029
1640.95	0.0694266
1642.14	0.0767887
1643.32	0.0884162
1644.51	0.0900688
1645.69	0.088279
1646.88	0.0768645
1648.06	0.0705051
1649.25	0.0695512
1650.43	0.0796672
1651.62	0.0783798
1652.8	0.0834549
1653.99	0.0874732
1655.17	0.0892415
1656.36	0.087292
1657.54	0.0817415
1658.73	0.076112
1659.91	0.0696715
1661.1	0.0641699
1662.28	0.064247
1663.47	0.0779396
1664.65	0.0871551
1665.84	0.0865382
1667.02	0.0827031
1668.21	0.0835912
1669.39	0.084462
1670.58	0.091458
1671.76	0.0938456
1672.95	0.0955039
1674.13	0.0934498
1675.32	0.0902018
1676.5	0.0974214
1677.69	0.101275
1678.87	0.0999691
1680.06	0.0957426
1681.24	0.0919246
1682.43	0.0893326
1683.61	0.0948265
1684.8	0.0850586
1685.98	0.0715522
1687.17	0.0643264
1688.35	0.0631037
1689.54	0.0650146
1690.72	0.0690425
1691.91	0.0672882
1693.09	0.0623218
1694.28	0.0610532
1695.46	0.05629
1696.65	0.0607549
1697.83	0.0548101
1699.02	0.0557936
1700.2	0.0519375
1701.39	0.0573971
1702.57	0.0622501
1703.76	0.0618874
1704.94	0.0595531
1706.13	0.0643988
1707.31	0.0657134
1708.5	0.0671341
1709.68	0.068141
1710.87	0.0668976
1712.05	0.0632386
1713.24	0.0611305
1714.42	0.0478891
1715.61	0.0475067
1716.79	0.0482802
1717.98	0.0514675
1719.16	0.0488361
1720.35	0.0455368
1721.53	0.0466183
1722.72	0.0421496
1723.9	0.0341749
1725.09	0.027414
1726.27	0.0304219
1727.46	0.0313723
1728.64	0.0311945
1729.83	0.0318275
1731.01	0.0414401
1732.2	0.0410867
1733.38	0.0447396
1734.57	0.0466252
1735.75	0.0522102
1736.94	0.0499723
1738.12	0.0504663
1739.31	0.0475765
1740.49	0.0557427
1741.68	0.0542248
1742.86	0.0516668
1744.05	0.0552213
1745.23	0.0611618
1746.42	0.0615896
1747.6	0.0652049
1748.79	0.0616149
1749.97	0.0538717
1751.16	0.0538681
1752.34	0.051928
1753.53	0.0476312
1754.71	0.047655
1755.9	0.048549
1757.08	0.0469362
1758.27	0.0407881
1759.45	0.0377714
1760.64	0.0309773
1761.82	0.0258102
1763.01	0.0178421
1764.19	0.00984778
1765.38	0.0127539
1766.56	0.00653073
1767.74	0.00826629
1768.93	0.00886018
1770.12	0.00781185
1771.3	0.00866704
1772.49	0.00602462
1773.67	0.0103627
1774.85	0.0138048
1776.04	0.0144037
1777.23	0.0130551
1778.41	0.0157862
1779.6	0.024711
1780.78	0.0211596
1781.97	0.0210844
1783.15	0.0192051
1784.34	0.0181426
1785.52	0.0159452
1786.7	0.0161736
1787.89	0.0148953
1789.08	0.0167487
1790.26	0.0117367
1791.45	0.0132191
1792.63	0.0148252
1793.81	0.0142042
1795	0.0121339
