405	0.0546592
406.185	0.0929101
407.37	0.13408
408.555	0.167341
409.74	0.192145
410.925	0.210716
412.11	0.224703
413.295	0.234543
414.48	0.240384
415.665	0.254815
416.85	0.256355
418.035	0.261181
419.22	0.259482
420.405	0.251767
421.59	0.242634
422.775	0.23222
423.96	0.223029
425.145	0.207496
426.33	0.180488
427.515	0.16277
428.7	0.150761
429.885	0.136005
431.07	0.115198
432.255	0.0931468
433.44	0.0773561
434.625	0.0606305
435.81	0.0528942
436.995	0.0481132
438.18	0.0364978
439.365	0.0294365
440.55	0.026765
441.735	0.0192635
442.92	0.00717049
444.105	-9.01048e-005
445.29	0.00384844
446.475	0.00427859
447.66	0.00249772
448.845	-0.000320393
450.03	-0.00103497
451.215	0.0025933
452.4	0.00814774
453.585	0.00938731
454.77	0.0159481
455.955	0.0222784
457.14	0.0284965
458.325	0.0498613
459.51	0.0698273
460.695	0.0865061
461.88	0.111576
463.065	0.146717
464.25	0.176572
465.435	0.192978
466.62	0.228156
467.805	0.265485
468.99	0.30782
470.175	0.351795
471.36	0.396265
472.545	0.444708
473.73	0.499105
474.915	0.554722
476.1	0.59304
477.285	0.64265
478.47	0.684557
479.655	0.726611
480.84	0.762473
482.025	0.785618
483.21	0.800859
484.395	0.817976
485.58	0.836518
486.765	0.844541
487.95	0.846579
489.135	0.83868
490.32	0.826324
491.505	0.812554
492.69	0.791548
493.875	0.75633
495.06	0.714131
496.245	0.690032
497.43	0.651086
498.615	0.610728
499.8	0.566828
500.985	0.525642
502.17	0.490768
503.355	0.46445
504.54	0.440618
505.725	0.405895
506.91	0.369449
508.095	0.341691
509.28	0.320163
510.465	0.296728
511.65	0.271652
512.835	0.252521
514.02	0.242261
515.205	0.234924
516.39	0.222495
517.575	0.206813
518.76	0.198537
519.945	0.183485
521.13	0.178619
522.315	0.176324
523.5	0.16624
524.685	0.15751
525.87	0.15654
527.055	0.154984
528.24	0.147561
529.425	0.152188
530.61	0.157521
531.795	0.161766
532.98	0.164167
534.164	0.167962
535.35	0.166746
536.535	0.169214
537.719	0.179549
538.905	0.188051
540.09	0.200769
541.274	0.203031
542.46	0.212862
543.644	0.21335
544.829	0.215167
546.015	0.219828
547.199	0.225957
548.385	0.226483
549.569	0.22205
550.754	0.224353
551.94	0.22886
553.124	0.228913
554.309	0.21949
555.495	0.221497
556.679	0.217786
557.864	0.210671
559.049	0.201819
560.234	0.192882
561.419	0.183419
562.604	0.171461
563.789	0.164367
564.974	0.160604
566.159	0.158346
567.344	0.15473
568.529	0.149112
569.714	0.144835
570.899	0.139732
572.084	0.133803
573.269	0.13092
574.454	0.130997
575.639	0.125797
576.824	0.118905
578.009	0.116188
579.194	0.109687
580.379	0.108966
581.564	0.10853
582.749	0.113154
583.934	0.115272
585.119	0.110351
586.304	0.106351
587.489	0.106369
588.674	0.105791
589.859	0.101369
591.044	0.0984178
592.229	0.0955878
593.414	0.0963646
594.599	0.0920505
595.784	0.090947
596.969	0.0911264
598.154	0.0885587
599.339	0.0893952
600.524	0.0861366
601.709	0.0783512
602.894	0.0752173
604.079	0.0773542
605.264	0.0786807
606.449	0.0741053
607.634	0.0728217
608.819	0.0780349
610.004	0.0792868
611.189	0.0732967
612.374	0.0725143
613.559	0.0755572
614.744	0.0758849
615.929	0.06902
617.114	0.0641976
618.299	0.0620577
619.484	0.0592816
620.669	0.0632756
621.854	0.0611369
623.039	0.0528353
624.224	0.0486551
625.409	0.047951
626.594	0.0513505
627.779	0.0425538
628.964	0.032575
630.149	0.0402535
631.334	0.0470693
632.519	0.0447443
633.704	0.0519438
634.889	0.0595053
636.074	0.0644293
637.259	0.0710856
638.444	0.0776539
639.629	0.0817171
640.814	0.0757459
641.999	0.0914829
643.184	0.0984417
644.369	0.0996325
645.554	0.096132
646.739	0.110622
647.924	0.124641
649.109	0.129908
650.294	0.132245
651.479	0.134534
652.664	0.134671
653.849	0.135613
655.034	0.14645
656.219	0.15382
657.404	0.163715
658.589	0.171004
659.774	0.18642
660.959	0.191913
662.144	0.194509
663.329	0.202899
664.514	0.215074
665.699	0.222164
666.884	0.223227
668.069	0.231734
669.254	0.24222
670.439	0.253344
671.624	0.265228
672.809	0.269546
673.994	0.273497
675.179	0.275303
676.364	0.268455
677.549	0.262132
678.734	0.250595
679.919	0.23349
681.104	0.223884
682.289	0.2154
683.474	0.203045
684.659	0.188207
685.844	0.173705
687.029	0.160752
688.214	0.150013
689.399	0.134093
690.584	0.11812
691.769	0.101901
692.954	0.0871203
694.139	0.0750159
695.324	0.0658464
696.509	0.0585034
697.694	0.052663
698.879	0.0611656
700.064	0.0556375
701.249	0.0492288
702.434	0.0421084
703.619	0.0418845
704.804	0.0366295
705.989	0.0319326
707.174	0.0271461
708.359	0.0226845
709.544	0.0194156
710.729	0.0214661
711.914	0.0270429
713.099	0.0254075
714.284	0.0295766
715.469	0.0332928
716.654	0.029402
717.839	0.0195153
719.024	0.0201818
720.209	0.0158564
721.394	0.0183825
722.579	0.0232507
723.764	0.0311478
724.949	0.03389
726.134	0.0309255
727.319	0.0287095
728.504	0.0262166
729.689	0.0219987
730.874	0.00833655
732.059	0.00729948
733.244	0.000125559
734.429	-0.00438947
735.614	0.00285161
736.799	0.00587472
737.984	0.00514347
739.169	0.00819071
740.354	0.00657556
741.539	0.00190945
742.724	-0.00141891
743.909	-0.00601687
745.094	-0.0105657
746.279	-0.00705792
747.464	0.00348667
748.649	0.00595222
749.834	0.0161087
751.019	0.0242027
752.204	0.0256894
753.389	0.0270965
754.574	0.0205501
755.759	0.0187706
756.944	0.0252578
758.129	0.0274414
759.314	0.0281974
760.499	0.0265337
761.684	0.0218668
762.869	0.0270211
764.054	0.0360892
765.239	0.0337334
766.424	0.0228997
767.609	0.0186349
768.794	0.0184982
769.979	0.0051529
771.164	0.00346476
772.349	0.00266587
773.534	0.00154256
774.719	-6.71849e-005
775.904	-0.0027416
777.089	-0.00400869
778.274	-0.00267317
779.459	0.00230735
780.644	0.00697267
781.829	0.00510762
783.014	0.00506885
784.199	0.00675719
785.384	0.00814697
786.569	0.00488379
787.754	0.00395047
788.939	0.0108994
790.124	0.0119628
791.309	0.0107673
792.494	0.0148776
793.679	0.0197676
794.864	0.0192357
796.049	0.0228388
797.234	0.0262782
798.419	0.0294385
799.604	0.0383825
800.789	0.0454942
801.974	0.0505872
803.159	0.0598859
804.344	0.0794066
805.529	0.10648
806.714	0.12535
807.899	0.153911
809.084	0.182844
810.269	0.214461
811.454	0.242502
812.639	0.2686
813.823	0.301403
815.009	0.329299
816.194	0.351882
817.378	0.37396
818.564	0.395927
819.748	0.416526
820.933	0.43454
822.119	0.447176
823.303	0.451151
824.488	0.453274
825.674	0.456984
826.858	0.447588
828.044	0.449462
829.228	0.451584
830.413	0.457847
831.599	0.466832
832.783	0.47524
833.968	0.494227
835.153	0.521385
836.338	0.547966
837.523	0.575752
838.708	0.607049
839.893	0.643554
841.078	0.683921
842.263	0.722573
843.448	0.760315
844.633	0.802307
845.818	0.840673
847.003	0.867339
848.188	0.895328
849.373	0.914259
850.558	0.93091
851.743	0.943039
852.928	0.948225
854.113	0.941986
855.298	0.930125
856.483	0.916236
857.668	0.895119
858.853	0.869036
860.038	0.840706
861.223	0.810854
862.408	0.773968
863.593	0.733131
864.778	0.69682
865.963	0.660785
867.148	0.623346
868.333	0.592811
869.518	0.557485
870.703	0.513599
871.888	0.471875
873.073	0.425978
874.258	0.387989
875.443	0.343767
876.628	0.319279
877.813	0.287732
878.998	0.259789
880.183	0.230413
881.368	0.208214
882.553	0.194171
883.738	0.177547
884.923	0.160151
886.108	0.140276
887.293	0.117617
888.478	0.106161
889.663	0.101419
890.848	0.100646
892.033	0.108977
893.218	0.117792
894.403	0.123324
895.588	0.124251
896.773	0.130433
897.958	0.139708
899.143	0.152777
900.328	0.169707
901.513	0.172939
902.698	0.180221
903.883	0.192766
905.068	0.202404
906.253	0.219923
907.438	0.23127
908.623	0.239404
909.808	0.25357
910.993	0.261302
912.178	0.269963
913.363	0.280234
914.548	0.292958
915.733	0.303237
916.918	0.309379
918.103	0.311161
919.288	0.315099
920.473	0.323385
921.658	0.32958
922.843	0.333551
924.028	0.334963
925.213	0.332056
926.398	0.327012
927.583	0.323333
928.768	0.313246
929.953	0.300322
931.138	0.286131
932.323	0.263203
933.508	0.244857
934.693	0.230381
935.878	0.219969
937.063	0.195873
938.248	0.17049
939.433	0.142155
940.618	0.122168
941.803	0.103981
942.988	0.0878845
944.173	0.0740782
945.358	0.060865
946.543	0.0473617
947.728	0.0358705
948.913	0.0279999
950.098	0.0292203
951.283	0.0282592
952.468	0.0210053
953.653	0.0129542
954.838	0.0126977
956.023	0.0187122
957.208	0.0214769
958.393	0.0273398
959.578	0.0317746
960.763	0.0403522
961.948	0.0457603
963.133	0.0508729
964.318	0.0591615
965.503	0.0714585
966.688	0.0819345
967.873	0.0875663
969.058	0.0930745
970.243	0.0996768
971.428	0.108907
972.613	0.128354
973.798	0.134633
974.983	0.148687
976.168	0.154662
977.353	0.155641
978.538	0.154811
979.723	0.154405
980.908	0.154012
982.093	0.154699
983.278	0.153098
984.463	0.14719
985.648	0.143216
986.833	0.140939
988.018	0.139999
989.203	0.137755
990.388	0.134732
991.573	0.130195
992.758	0.125116
993.943	0.12433
995.128	0.130118
996.313	0.136245
997.498	0.137334
998.683	0.136576
999.868	0.137976
1001.05	0.138322
1002.24	0.138642
1003.42	0.143868
1004.61	0.139275
1005.79	0.133728
1006.98	0.139479
1008.16	0.143313
1009.35	0.137061
1010.53	0.134166
1011.72	0.140439
1012.9	0.143127
1014.09	0.139214
1015.27	0.137197
1016.46	0.139017
1017.64	0.151963
1018.83	0.158878
1020.01	0.178969
1021.2	0.189477
1022.38	0.215325
1023.57	0.250077
1024.75	0.270154
1025.94	0.281163
1027.12	0.297645
1028.31	0.327287
1029.49	0.346593
1030.68	0.364596
1031.86	0.393896
1033.05	0.426483
1034.23	0.462089
1035.42	0.489613
1036.6	0.518691
1037.79	0.540097
1038.97	0.566372
1040.16	0.588855
1041.34	0.604836
1042.53	0.621875
1043.71	0.63958
1044.9	0.659842
1046.08	0.686129
1047.27	0.706884
1048.45	0.724279
1049.64	0.740137
1050.82	0.745209
1052.01	0.749355
1053.19	0.751499
1054.38	0.755486
1055.56	0.757407
1056.75	0.751778
1057.93	0.745136
1059.12	0.738687
1060.3	0.732424
1061.49	0.728718
1062.67	0.724126
1063.86	0.710137
1065.04	0.692367
1066.23	0.677097
1067.41	0.656389
1068.6	0.637418
1069.78	0.624217
1070.97	0.608216
1072.15	0.588638
1073.34	0.56808
1074.52	0.553994
1075.71	0.539175
1076.89	0.522635
1078.08	0.507845
1079.26	0.494722
1080.45	0.484021
1081.63	0.472929
1082.82	0.462698
1084	0.459319
1085.19	0.451617
1086.37	0.44453
1087.56	0.441734
1088.74	0.439226
1089.93	0.436494
1091.11	0.430547
1092.3	0.428613
1093.48	0.427955
1094.67	0.429084
1095.85	0.42742
1097.04	0.418026
1098.22	0.413446
1099.41	0.410835
1100.59	0.410958
1101.78	0.404314
1102.96	0.404309
1104.15	0.409876
1105.33	0.407731
1106.52	0.40176
1107.7	0.404056
1108.89	0.400908
1110.07	0.392747
1111.26	0.383168
1112.44	0.375714
1113.63	0.368684
1114.81	0.365176
1116	0.354387
1117.18	0.34148
1118.37	0.326186
1119.55	0.312704
1120.74	0.300095
1121.92	0.282985
1123.11	0.264828
1124.29	0.247686
1125.48	0.224285
1126.66	0.203686
1127.85	0.182118
1129.03	0.166785
1130.22	0.146684
1131.4	0.124468
1132.59	0.106725
1133.77	0.094838
1134.96	0.0878479
1136.14	0.0762856
1137.33	0.0680906
1138.51	0.0590623
1139.7	0.0479332
1140.88	0.0391685
1142.07	0.02856
1143.25	0.0196464
1144.44	0.0175096
1145.62	0.0212701
1146.81	0.0185524
1147.99	0.0197382
1149.18	0.018599
1150.36	0.0140786
1151.55	0.011278
1152.73	0.00585515
1153.92	0.00301252
1155.1	8.83959e-005
1156.29	-0.00427794
1157.47	-0.00645942
1158.66	-0.00638956
1159.84	-0.00254403
1161.03	0.00789261
1162.21	0.011253
1163.4	0.00867797
1164.58	0.0113583
1165.77	0.0100467
1166.95	0.0136294
1168.14	0.0174594
1169.32	0.0132015
1170.51	0.0108503
1171.69	0.0117296
1172.88	0.00880477
1174.06	0.0117918
1175.25	0.0116171
1176.43	0.00745293
1177.62	0.0034238
1178.8	-0.00209367
1179.99	0.00143989
1181.17	0.00537811
1182.36	0.00603551
1183.54	0.00818132
1184.73	0.011135
1185.91	0.0149619
1187.1	0.0241122
1188.28	0.0310281
1189.47	0.0379063
1190.65	0.0476777
1191.84	0.0535978
1193.02	0.0634104
1194.21	0.0740317
1195.39	0.0777839
1196.58	0.0811953
1197.76	0.0846296
1198.95	0.0897525
1200.13	0.0939179
1201.32	0.100237
1202.5	0.103944
1203.69	0.109128
1204.87	0.107929
1206.06	0.113014
1207.24	0.116722
1208.43	0.115274
1209.61	0.113459
1210.8	0.114915
1211.98	0.122001
1213.17	0.124878
1214.35	0.127684
1215.54	0.128022
1216.72	0.125066
1217.91	0.131243
1219.09	0.134124
1220.28	0.134697
1221.46	0.14126
1222.65	0.143748
1223.83	0.140645
1225.02	0.139354
1226.2	0.147728
1227.39	0.157574
1228.57	0.157597
1229.76	0.167261
1230.94	0.178655
1232.13	0.182989
1233.31	0.187042
1234.5	0.194279
1235.68	0.199742
1236.87	0.205562
1238.05	0.209347
1239.24	0.214585
1240.42	0.218439
1241.61	0.2245
1242.79	0.227456
1243.98	0.224588
1245.16	0.228082
1246.35	0.228012
1247.53	0.223413
1248.72	0.219875
1249.9	0.225112
1251.09	0.232716
1252.27	0.234522
1253.46	0.234134
1254.64	0.23909
1255.83	0.238962
1257.01	0.238543
1258.2	0.240436
1259.38	0.238353
1260.57	0.239168
1261.75	0.242724
1262.94	0.240085
1264.12	0.242772
1265.31	0.239375
1266.49	0.255972
1267.68	0.24935
1268.86	0.245399
1270.05	0.24967
1271.23	0.253519
1272.42	0.250978
1273.6	0.255219
1274.79	0.260113
1275.97	0.262343
1277.16	0.262645
1278.34	0.261828
1279.53	0.256409
1280.71	0.256087
1281.9	0.255971
1283.08	0.253137
1284.27	0.239281
1285.45	0.234863
1286.64	0.229799
1287.82	0.222013
1289.01	0.219331
1290.19	0.213821
1291.38	0.209459
1292.56	0.21041
1293.75	0.210358
1294.93	0.209095
1296.12	0.211237
1297.3	0.211639
1298.49	0.210556
1299.67	0.214882
1300.86	0.219155
1302.04	0.219713
1303.23	0.216707
1304.41	0.224391
1305.6	0.218049
1306.78	0.228542
1307.97	0.227261
1309.15	0.232056
1310.34	0.226249
1311.52	0.234564
1312.71	0.243217
1313.89	0.249043
1315.08	0.254857
1316.26	0.256318
1317.45	0.25279
1318.63	0.256664
1319.82	0.264553
1321	0.261647
1322.19	0.261869
1323.37	0.258811
1324.56	0.261731
1325.74	0.260689
1326.93	0.259922
1328.11	0.25914
1329.3	0.252083
1330.48	0.252829
1331.67	0.247188
1332.85	0.245658
1334.04	0.247272
1335.22	0.252036
1336.41	0.246437
1337.59	0.250692
1338.78	0.252696
1339.96	0.253798
1341.15	0.250978
1342.33	0.248502
1343.52	0.249083
1344.7	0.246961
1345.89	0.246409
1347.07	0.243162
1348.26	0.240168
1349.44	0.244043
1350.63	0.242441
1351.81	0.238556
1353	0.235179
1354.18	0.230081
1355.37	0.229995
1356.55	0.226347
1357.74	0.231356
1358.92	0.231359
1360.11	0.226793
1361.29	0.222779
1362.48	0.214554
1363.66	0.221686
1364.85	0.226555
1366.03	0.222505
1367.22	0.215304
1368.4	0.21461
1369.59	0.218553
1370.77	0.220611
1371.96	0.218208
1373.14	0.216417
1374.33	0.213286
1375.51	0.20997
1376.7	0.214499
1377.88	0.220818
1379.07	0.228837
1380.25	0.22306
1381.44	0.216077
1382.62	0.214402
1383.81	0.214576
1384.99	0.218958
1386.18	0.21439
1387.36	0.212563
1388.55	0.213262
1389.73	0.209556
1390.92	0.208544
1392.1	0.20392
1393.29	0.199099
1394.47	0.195037
1395.66	0.190364
1396.84	0.186622
1398.03	0.186257
1399.21	0.187558
1400.4	0.185132
1401.58	0.179847
1402.77	0.178132
1403.95	0.173783
1405.14	0.166808
1406.32	0.169624
1407.51	0.169115
1408.69	0.173584
1409.88	0.17143
1411.06	0.168124
1412.25	0.169615
1413.43	0.174607
1414.62	0.174683
1415.8	0.169455
1416.99	0.167781
1418.17	0.167037
1419.36	0.167821
1420.54	0.169346
1421.73	0.172829
1422.91	0.173959
1424.1	0.168966
1425.28	0.160125
1426.47	0.16393
1427.65	0.167149
1428.84	0.167313
1430.02	0.165676
1431.21	0.166271
1432.39	0.17068
1433.58	0.178766
1434.76	0.183674
1435.95	0.184024
1437.13	0.185575
1438.32	0.194823
1439.5	0.207569
1440.69	0.220745
1441.87	0.237908
1443.06	0.25411
1444.24	0.266825
1445.43	0.281578
1446.61	0.29505
1447.8	0.307963
1448.98	0.321907
1450.17	0.342099
1451.35	0.36467
1452.54	0.384821
1453.72	0.408522
1454.91	0.423661
1456.09	0.438316
1457.28	0.452774
1458.46	0.466453
1459.65	0.476232
1460.83	0.48401
1462.02	0.48848
1463.2	0.490551
1464.39	0.493848
1465.57	0.498598
1466.76	0.487304
1467.94	0.473949
1469.13	0.465466
1470.31	0.453993
1471.5	0.44091
1472.68	0.425043
1473.87	0.401678
1475.05	0.376569
1476.24	0.351612
1477.42	0.323751
1478.61	0.302809
1479.79	0.28137
1480.98	0.259483
1482.16	0.233554
1483.35	0.212543
1484.53	0.193629
1485.72	0.172476
1486.9	0.152929
1488.09	0.137372
1489.27	0.120024
1490.46	0.107878
1491.64	0.101561
1492.83	0.0894824
1494.01	0.082025
1495.2	0.0723501
1496.38	0.0681748
1497.57	0.0609772
1498.75	0.0596184
1499.94	0.0548886
1501.12	0.0519275
1502.31	0.0477292
1503.49	0.042134
1504.68	0.0352505
1505.86	0.0270439
1507.05	0.0304838
1508.23	0.0268903
1509.42	0.0203874
1510.6	0.0241636
1511.79	0.0254161
1512.97	0.017288
1514.16	0.0145162
1515.34	0.01374
1516.53	0.0167067
1517.71	0.0183592
1518.9	0.0180976
1520.08	0.0133095
1521.27	0.0139675
1522.45	0.0179472
1523.64	0.0115001
1524.82	0.0103122
1526.01	0.0159419
1527.19	0.00736813
1528.38	0.00533445
1529.56	0.0108119
1530.75	0.0126788
1531.93	0.00767984
1533.12	0.00507955
1534.3	-0.00192814
1535.49	0.0023047
1536.67	0.0142718
1537.86	0.0133957
1539.04	0.0162072
1540.23	0.0151783
1541.41	0.0140681
1542.6	0.01269
1543.78	0.0153827
1544.97	0.0148172
1546.15	0.0124004
1547.34	0.0104223
1548.52	0.0136073
1549.71	0.0152413
1550.89	0.0221251
1552.08	0.0197009
1553.26	0.0134925
1554.45	0.0119677
1555.63	0.00882919
1556.82	0.00727762
1558	0.00433504
1559.19	0.00364636
1560.37	0.00307499
1561.56	0.00624514
1562.74	0.00515153
1563.93	0.00530025
1565.11	0.0045927
1566.3	0.000477034
1567.48	-0.00274722
1568.67	-0.00356603
1569.85	-0.00372672
1571.04	-0.00324753
1572.22	-0.00266792
1573.41	0.00245133
1574.59	0.00890325
1575.78	0.00956342
1576.96	0.0105063
1578.15	0.00755635
1579.33	0.00751575
1580.52	0.00789167
1581.7	0.00928645
1582.89	0.00960034
1584.07	0.00965556
1585.26	0.00982572
1586.44	0.0113158
1587.63	0.0146929
1588.81	0.0192044
1590	0.0155678
1591.18	0.0119281
1592.37	0.0101492
1593.55	0.010917
1594.74	0.0121014
1595.92	0.013809
1597.11	0.015217
1598.29	0.0122315
1599.48	0.0152002
1600.66	0.0176356
1601.85	0.0214486
1603.03	0.0218351
1604.22	0.020775
1605.4	0.0183233
1606.59	0.0185639
1607.77	0.0213351
1608.96	0.0213968
1610.14	0.0194775
1611.33	0.0227669
1612.51	0.0235144
1613.7	0.0173489
1614.88	0.0171788
1616.07	0.0169351
1617.25	0.0163944
1618.44	0.0159245
1619.62	0.0149853
1620.81	0.015142
1621.99	0.0187795
1623.18	0.0179651
1624.36	0.0189112
1625.55	0.0204566
1626.73	0.0209824
1627.92	0.0180204
1629.1	0.0213598
1630.29	0.0281316
1631.47	0.0268896
1632.66	0.0275611
1633.84	0.025089
1635.03	0.0250832
1636.21	0.0252371
1637.4	0.0216443
1638.58	0.0183839
1639.77	0.0172571
1640.95	0.018006
1642.14	0.0174049
1643.32	0.0169612
1644.51	0.0165323
1645.69	0.0142113
1646.88	0.0172336
1648.06	0.0130319
1649.25	0.0131974
1650.43	0.0135816
1651.62	0.0136968
1652.8	0.0160011
1653.99	0.0187247
1655.17	0.0237149
1656.36	0.0264813
1657.54	0.024371
1658.73	0.0263319
1659.91	0.0295745
1661.1	0.0281214
1662.28	0.0309353
1663.47	0.0334337
1664.65	0.0413532
1665.84	0.0429012
1667.02	0.0416207
1668.21	0.0407313
1669.39	0.041642
1670.58	0.0410316
1671.76	0.0387961
1672.95	0.036565
1674.13	0.0455684
1675.32	0.0410887
1676.5	0.0355383
1677.69	0.0343152
1678.87	0.0318967
1680.06	0.0301209
1681.24	0.0246773
1682.43	0.0266619
1683.61	0.0269874
1684.8	0.0299583
1685.98	0.0309192
1687.17	0.0332325
1688.35	0.0333025
1689.54	0.0327718
1690.72	0.0314689
1691.91	0.0332105
1693.09	0.0330621
1694.28	0.0326935
1695.46	0.0264468
1696.65	0.0236175
1697.83	0.0207837
1699.02	0.0205711
1700.2	0.0202343
1701.39	0.0142857
1702.57	0.0124337
1703.76	0.0102829
1704.94	0.0106346
1706.13	0.0107431
1707.31	0.0088811
1708.5	0.0112528
1709.68	0.0129293
1710.87	0.014377
1712.05	0.0128848
1713.24	0.0129624
1714.42	0.0106305
1715.61	0.00569969
1716.79	0.00843943
1717.98	0.00607962
1719.16	0.0046289
1720.35	0.00672765
1721.53	0.00573114
1722.72	0.00395945
1723.9	0.00163455
1725.09	-0.00113068
1726.27	-0.00280021
1727.46	0.00333659
1728.64	0.00216971
1729.83	0.00432343
1731.01	0.00345341
1732.2	0.00529304
1733.38	0.00702763
1734.57	0.0112569
1735.75	0.0131557
1736.94	0.00956726
1738.12	0.0108771
1739.31	0.0099054
1740.49	0.0164854
1741.68	0.0206429
1742.86	0.0231011
1744.05	0.0236755
1745.23	0.0255925
1746.42	0.0268503
1747.6	0.0269673
1748.79	0.0197729
1749.97	0.0179427
1751.16	0.0126482
1752.34	0.011526
1753.53	0.0121815
1754.71	0.0122425
1755.9	0.0124673
1757.08	0.00904272
1758.27	0.00192644
1759.45	-0.00289831
1760.64	-0.00193193
1761.82	-0.0026513
1763.01	-0.00302227
1764.19	0.000922366
1765.38	0.00288389
1766.56	0.00434705
1767.74	0.00273369
1768.93	0.00290333
1770.12	0.00168995
1771.3	3.99447e-005
1772.49	-0.00234446
1773.67	0.000203723
1774.85	0.00296516
1776.04	0.00716039
1777.23	0.00283309
1778.41	0.00330537
1779.6	0.00305216
1780.78	0.00195748
1781.97	0.00337765
1783.15	0.0055062
1784.34	0.0068925
1785.52	0.00737141
1786.7	0.00938065
1787.89	0.00662084
1789.08	0.00533341
1790.26	0.000988353
1791.45	-0.00207628
1792.63	-0.00199567
1793.81	-0.00250561
1795	-0.0053485
