405	0.219649
406.185	0.246159
407.37	0.254074
408.555	0.256772
409.74	0.25592
410.925	0.257826
412.11	0.263
413.295	0.259929
414.48	0.248343
415.665	0.252959
416.85	0.222363
418.035	0.195968
419.22	0.185977
420.405	0.165956
421.59	0.131038
422.775	0.113842
423.96	0.110356
425.145	0.0776465
426.33	0.0671208
427.515	0.0456164
428.7	0.0384576
429.885	0.0394132
431.07	0.032899
432.255	0.0142576
433.44	-0.0105657
434.625	-0.00365998
435.81	-0.00895876
436.995	0.0103431
438.18	0.0116792
439.365	0.0139453
440.55	0.0270428
441.735	0.043998
442.92	0.0674172
444.105	0.105086
445.29	0.130792
446.475	0.146733
447.66	0.162924
448.845	0.173122
450.03	0.180355
451.215	0.18954
452.4	0.205816
453.585	0.237339
454.77	0.233778
455.955	0.268745
457.14	0.280545
458.325	0.293982
459.51	0.29984
460.695	0.312207
461.88	0.337563
463.065	0.348144
464.25	0.346884
465.435	0.34585
466.62	0.367356
467.805	0.386174
468.99	0.401801
470.175	0.419797
471.36	0.434096
472.545	0.442176
473.73	0.463478
474.915	0.507638
476.1	0.518332
477.285	0.547538
478.47	0.589678
479.655	0.635069
480.84	0.665614
482.025	0.677684
483.21	0.685222
484.395	0.701486
485.58	0.726617
486.765	0.733027
487.95	0.746446
489.135	0.766565
490.32	0.770186
491.505	0.777936
492.69	0.795757
493.875	0.798497
495.06	0.776573
496.245	0.766081
497.43	0.7523
498.615	0.72994
499.8	0.700833
500.985	0.690778
502.17	0.688501
503.355	0.68025
504.54	0.662951
505.725	0.636613
506.91	0.618821
508.095	0.605739
509.28	0.589896
510.465	0.593667
511.65	0.587345
512.835	0.572962
514.02	0.566187
515.205	0.562176
516.39	0.545508
517.575	0.542122
518.76	0.542635
519.945	0.543229
521.13	0.528201
522.315	0.519207
523.5	0.514337
524.685	0.510372
525.87	0.50833
527.055	0.506657
528.24	0.497478
529.425	0.481467
530.61	0.47504
531.795	0.478608
532.98	0.479964
534.164	0.484012
535.35	0.506637
536.535	0.525626
537.719	0.528908
538.905	0.539647
540.09	0.549215
541.274	0.551894
542.46	0.572756
543.644	0.566583
544.829	0.5742
546.015	0.593293
547.199	0.61333
548.385	0.632483
549.569	0.646804
550.754	0.64947
551.94	0.658309
553.124	0.665896
554.309	0.677116
555.495	0.669056
556.679	0.679936
557.864	0.68949
559.049	0.692348
560.234	0.686679
561.419	0.675301
562.604	0.673779
563.789	0.684524
564.974	0.688442
566.159	0.703141
567.344	0.69081
568.529	0.69034
569.714	0.704423
570.899	0.710573
572.084	0.703467
573.269	0.695929
574.454	0.693971
575.639	0.690713
576.824	0.688579
578.009	0.653774
579.194	0.641302
580.379	0.651527
581.564	0.644455
582.749	0.647292
583.934	0.663102
585.119	0.668259
586.304	0.66088
587.489	0.660335
588.674	0.642361
589.859	0.629211
591.044	0.61796
592.229	0.628293
593.414	0.61621
594.599	0.606262
595.784	0.592524
596.969	0.581496
598.154	0.58561
599.339	0.588847
600.524	0.579102
601.709	0.587059
602.894	0.574677
604.079	0.546525
605.264	0.509045
606.449	0.493356
607.634	0.481982
608.819	0.474405
610.004	0.475811
611.189	0.476022
612.374	0.467271
613.559	0.469387
614.744	0.484471
615.929	0.497175
617.114	0.500031
618.299	0.495167
619.484	0.499845
620.669	0.494266
621.854	0.472256
623.039	0.457025
624.224	0.457225
625.409	0.455142
626.594	0.458563
627.779	0.455607
628.964	0.42431
630.149	0.383108
631.334	0.358686
632.519	0.342481
633.704	0.308421
634.889	0.269059
636.074	0.239385
637.259	0.211313
638.444	0.176133
639.629	0.144954
640.814	0.113695
641.999	0.083555
643.184	0.065936
644.369	0.0549886
645.554	0.0397435
646.739	0.0398968
647.924	0.032399
649.109	0.0279523
650.294	0.0253936
651.479	0.0123475
652.664	-0.00115738
653.849	-0.0103414
655.034	-0.0102122
656.219	-0.00403367
657.404	0.00303151
658.589	0.0110698
659.774	0.0318672
660.959	0.0599013
662.144	0.0717946
663.329	0.0734125
664.514	0.0823001
665.699	0.0869629
666.884	0.0766251
668.069	0.087475
669.254	0.0930182
670.439	0.109422
671.624	0.119141
672.809	0.145237
673.994	0.163913
675.179	0.163794
676.364	0.157934
677.549	0.159958
678.734	0.155962
679.919	0.141566
681.104	0.13397
682.289	0.135802
683.474	0.149316
684.659	0.14733
685.844	0.144549
687.029	0.152454
688.214	0.162439
689.399	0.153577
690.584	0.144255
691.769	0.140164
692.954	0.146796
694.139	0.153485
695.324	0.155037
696.509	0.15918
697.694	0.158907
698.879	0.174921
700.064	0.172106
701.249	0.194162
702.434	0.182814
703.619	0.175799
704.804	0.193085
705.989	0.204393
707.174	0.198885
708.359	0.189667
709.544	0.19195
710.729	0.193475
711.914	0.178949
713.099	0.170536
714.284	0.177536
715.469	0.188373
716.654	0.186819
717.839	0.178921
719.024	0.191625
720.209	0.161667
721.394	0.173058
722.579	0.171539
723.764	0.152272
724.949	0.133189
726.134	0.127401
727.319	0.135172
728.504	0.140688
729.689	0.144278
730.874	0.159757
732.059	0.163263
733.244	0.159188
734.429	0.156477
735.614	0.158457
736.799	0.161625
737.984	0.169583
739.169	0.189918
740.354	0.192309
741.539	0.195184
742.724	0.216428
743.909	0.242158
745.094	0.259157
746.279	0.265416
747.464	0.277538
748.649	0.265813
749.834	0.273749
751.019	0.264473
752.204	0.260076
753.389	0.25616
754.574	0.254688
755.759	0.249623
756.944	0.242921
758.129	0.230907
759.314	0.226797
760.499	0.235657
761.684	0.230459
762.869	0.202242
764.054	0.186025
765.239	0.175204
766.424	0.16989
767.609	0.166442
768.794	0.145247
769.979	0.135152
771.164	0.143991
772.349	0.146076
773.534	0.164128
774.719	0.168491
775.904	0.159217
777.089	0.165989
778.274	0.165633
779.459	0.140481
780.644	0.126873
781.829	0.131867
783.014	0.12463
784.199	0.118715
785.384	0.111843
786.569	0.136142
787.754	0.148664
788.939	0.158591
790.124	0.157157
791.309	0.152342
792.494	0.132381
793.679	0.121463
794.864	0.115237
796.049	0.102628
797.234	0.0925488
798.419	0.0904699
799.604	0.0894125
800.789	0.0883045
801.974	0.094687
803.159	0.108992
804.344	0.0957008
805.529	0.0784947
806.714	0.0709454
807.899	0.0621997
809.084	0.0607665
810.269	0.066854
811.454	0.0539447
812.639	0.0443336
813.823	0.0472749
815.009	0.0521979
816.194	0.0594983
817.378	0.067903
818.564	0.068504
819.748	0.0689096
820.933	0.0742681
822.119	0.0732042
823.303	0.0790203
824.488	0.0791858
825.674	0.0781279
826.858	0.079921
828.044	0.080205
829.228	0.0714962
830.413	0.0867593
831.599	0.110884
832.783	0.133575
833.968	0.149506
835.153	0.152774
836.338	0.151608
837.523	0.159517
838.708	0.173323
839.893	0.194903
841.078	0.215207
842.263	0.230204
843.448	0.248814
844.633	0.26028
845.818	0.282536
847.003	0.307863
848.188	0.330086
849.373	0.334515
850.558	0.357989
851.743	0.37229
852.928	0.377769
854.113	0.401293
855.298	0.422149
856.483	0.436851
857.668	0.435248
858.853	0.428066
860.038	0.429873
861.223	0.423537
862.408	0.429619
863.593	0.443295
864.778	0.446349
865.963	0.446151
867.148	0.44522
868.333	0.442261
869.518	0.426971
870.703	0.414258
871.888	0.404914
873.073	0.385261
874.258	0.386162
875.443	0.377818
876.628	0.3642
877.813	0.352128
878.998	0.35745
880.183	0.380652
881.368	0.373739
882.553	0.361479
883.738	0.337008
884.923	0.326392
886.108	0.323255
887.293	0.32521
888.478	0.321351
889.663	0.316794
890.848	0.327004
892.033	0.34229
893.218	0.356252
894.403	0.379989
895.588	0.403067
896.773	0.4088
897.958	0.412284
899.143	0.407192
900.328	0.417798
901.513	0.428592
902.698	0.452665
903.883	0.471464
905.068	0.487637
906.253	0.494513
907.438	0.516114
908.623	0.531993
909.808	0.534441
910.993	0.522738
912.178	0.515576
913.363	0.501728
914.548	0.504842
915.733	0.515103
916.918	0.522535
918.103	0.516844
919.288	0.513646
920.473	0.518459
921.658	0.512553
922.843	0.512774
924.028	0.522266
925.213	0.519633
926.398	0.515287
927.583	0.508903
928.768	0.505122
929.953	0.511482
931.138	0.501552
932.323	0.495358
933.508	0.474858
934.693	0.476866
935.878	0.479214
937.063	0.473587
938.248	0.445864
939.433	0.4365
940.618	0.429174
941.803	0.419118
942.988	0.405168
944.173	0.399286
945.358	0.388233
946.543	0.379229
947.728	0.357353
948.913	0.345173
950.098	0.353357
951.283	0.361143
952.468	0.345968
953.653	0.324554
954.838	0.329019
956.023	0.349505
957.208	0.363673
958.393	0.367365
959.578	0.36304
960.763	0.363736
961.948	0.357911
963.133	0.342818
964.318	0.359982
965.503	0.378941
966.688	0.407123
967.873	0.419471
969.058	0.413306
970.243	0.42687
971.428	0.445654
972.613	0.443834
973.798	0.436739
974.983	0.447977
976.168	0.460925
977.353	0.492862
978.538	0.512726
979.723	0.557409
980.908	0.623384
982.093	0.676732
983.278	0.725122
984.463	0.777946
985.648	0.827985
986.833	0.8765
988.018	0.907055
989.203	0.923221
990.388	0.934229
991.573	0.942069
992.758	0.948225
993.943	0.946613
995.128	0.936872
996.313	0.925509
997.498	0.912233
998.683	0.883928
999.868	0.835106
1001.05	0.780541
1002.24	0.725185
1003.42	0.668131
1004.61	0.616228
1005.79	0.582439
1006.98	0.561186
1008.16	0.551467
1009.35	0.539231
1010.53	0.54027
1011.72	0.540035
1012.9	0.553211
1014.09	0.55461
1015.27	0.554638
1016.46	0.531083
1017.64	0.540037
1018.83	0.552675
1020.01	0.569011
1021.2	0.571511
1022.38	0.584979
1023.57	0.597752
1024.75	0.588053
1025.94	0.601116
1027.12	0.62474
1028.31	0.626148
1029.49	0.620186
1030.68	0.605006
1031.86	0.593317
1033.05	0.578864
1034.23	0.585059
1035.42	0.587712
1036.6	0.587616
1037.79	0.588487
1038.97	0.597639
1040.16	0.59383
1041.34	0.586069
1042.53	0.59902
1043.71	0.605479
1044.9	0.60693
1046.08	0.608923
1047.27	0.608863
1048.45	0.606244
1049.64	0.599934
1050.82	0.605877
1052.01	0.596866
1053.19	0.585007
1054.38	0.583449
1055.56	0.571791
1056.75	0.553583
1057.93	0.542648
1059.12	0.534382
1060.3	0.506028
1061.49	0.475589
1062.67	0.459851
1063.86	0.44426
1065.04	0.425909
1066.23	0.418194
1067.41	0.427748
1068.6	0.424441
1069.78	0.409743
1070.97	0.401822
1072.15	0.384201
1073.34	0.366224
1074.52	0.355649
1075.71	0.342674
1076.89	0.326632
1078.08	0.323775
1079.26	0.330234
1080.45	0.311501
1081.63	0.306967
1082.82	0.315799
1084	0.310726
1085.19	0.289361
1086.37	0.264195
1087.56	0.257221
1088.74	0.244837
1089.93	0.235629
1091.11	0.235145
1092.3	0.239265
1093.48	0.244484
1094.67	0.245568
1095.85	0.236438
1097.04	0.226556
1098.22	0.220291
1099.41	0.210674
1100.59	0.170696
1101.78	0.164734
1102.96	0.165703
1104.15	0.172186
1105.33	0.159821
1106.52	0.17025
1107.7	0.174761
1108.89	0.173181
1110.07	0.16197
1111.26	0.139216
1112.44	0.131804
1113.63	0.126356
1114.81	0.12435
1116	0.12773
1117.18	0.108436
1118.37	0.123791
1119.55	0.121236
1120.74	0.123541
1121.92	0.113518
1123.11	0.121192
1124.29	0.11708
1125.48	0.100465
1126.66	0.0838515
1127.85	0.079383
1129.03	0.0969938
1130.22	0.100595
1131.4	0.105978
1132.59	0.101886
1133.77	0.101038
1134.96	0.118265
1136.14	0.110553
1137.33	0.11044
1138.51	0.0905652
1139.7	0.0872154
1140.88	0.0875482
1142.07	0.0878135
1143.25	0.0990245
1144.44	0.104398
1145.62	0.104305
1146.81	0.0951121
1147.99	0.102767
1149.18	0.109265
1150.36	0.114642
1151.55	0.108561
1152.73	0.110857
1153.92	0.12774
1155.1	0.126409
1156.29	0.131049
1157.47	0.1477
1158.66	0.158576
1159.84	0.164514
1161.03	0.161325
1162.21	0.16125
1163.4	0.153899
1164.58	0.148382
1165.77	0.132393
1166.95	0.108432
1168.14	0.0949399
1169.32	0.0956452
1170.51	0.088461
1171.69	0.0850874
1172.88	0.0897169
1174.06	0.0838356
1175.25	0.0711104
1176.43	0.0609741
1177.62	0.0544693
1178.8	0.0528506
1179.99	0.0562969
1181.17	0.0674469
1182.36	0.0688468
1183.54	0.0766127
1184.73	0.0969938
1185.91	0.105407
1187.1	0.098985
1188.28	0.0952794
1189.47	0.0911676
1190.65	0.0954381
1191.84	0.108088
1193.02	0.102879
1194.21	0.100988
1195.39	0.0965607
1196.58	0.0876944
1197.76	0.0821835
1198.95	0.0776632
1200.13	0.088231
1201.32	0.0790462
1202.5	0.0671681
1203.69	0.0723327
1204.87	0.0744969
1206.06	0.0593388
1207.24	0.0490095
1208.43	0.0316244
1209.61	0.0264704
1210.8	0.0309247
1211.98	0.0206472
1213.17	0.0279403
1214.35	0.0326419
1215.54	0.0264694
1216.72	0.0126869
1217.91	0.00886127
1219.09	-0.00371172
1220.28	0.00426511
1221.46	-0.000270818
1222.65	0.0110964
1223.83	0.0196311
1225.02	0.00691573
1226.2	0.0109194
1227.39	0.00808801
1228.57	0.0100264
1229.76	0.00710514
1230.94	0.0128597
1232.13	0.00609005
1233.31	0.0180101
1234.5	0.0156685
1235.68	0.0227243
1236.87	0.0477844
1238.05	0.0393
1239.24	0.0354031
1240.42	0.0312576
1241.61	0.0279711
1242.79	0.0369279
1243.98	0.0501053
1245.16	0.0594634
1246.35	0.0629092
1247.53	0.056455
1248.72	0.0653987
1249.9	0.0771179
1251.09	0.0784116
1252.27	0.0879609
1253.46	0.0824313
1254.64	0.0804165
1255.83	0.0818424
1257.01	0.0872504
1258.2	0.100575
1259.38	0.117501
1260.57	0.118412
1261.75	0.0979611
1262.94	0.0908927
1264.12	0.0883338
1265.31	0.0956035
1266.49	0.0708449
1267.68	0.0621445
1268.86	0.0642651
1270.05	0.0601596
1271.23	0.0500787
1272.42	0.0617874
1273.6	0.0742828
1274.79	0.0729893
1275.97	0.0726279
1277.16	0.0714178
1278.34	0.0824509
1279.53	0.106706
1280.71	0.113409
1281.9	0.129213
1283.08	0.148282
1284.27	0.176979
1285.45	0.195807
1286.64	0.208236
1287.82	0.225565
1289.01	0.236955
1290.19	0.235035
1291.38	0.230316
1292.56	0.226884
1293.75	0.225231
1294.93	0.234792
1296.12	0.228908
1297.3	0.235866
1298.49	0.234298
1299.67	0.212625
1300.86	0.214707
1302.04	0.197152
1303.23	0.188167
1304.41	0.157722
1305.6	0.166345
1306.78	0.156203
1307.97	0.161848
1309.15	0.161354
1310.34	0.155026
1311.52	0.138537
1312.71	0.131947
1313.89	0.130192
1315.08	0.133063
1316.26	0.140009
1317.45	0.138451
1318.63	0.128375
1319.82	0.132127
1321	0.152191
1322.19	0.144845
1323.37	0.143716
1324.56	0.139833
1325.74	0.142259
1326.93	0.146597
1328.11	0.163767
1329.3	0.160811
1330.48	0.152828
1331.67	0.134286
1332.85	0.111856
1334.04	0.109905
1335.22	0.105378
1336.41	0.104209
1337.59	0.0911037
1338.78	0.07895
1339.96	0.0892304
1341.15	0.0657582
1342.33	0.0513864
1343.52	0.037147
1344.7	0.0293084
1345.89	0.0206303
1347.07	0.0167483
1348.26	0.0146156
1349.44	0.0225837
1350.63	0.0288535
1351.81	0.0254236
1353	0.0232273
1354.18	0.0294821
1355.37	0.0349141
1356.55	0.0229361
1357.74	0.0222013
1358.92	0.0386523
1360.11	0.0431233
1361.29	0.0341755
1362.48	0.0254881
1363.66	0.0377342
1364.85	0.0259552
1366.03	0.0254016
1367.22	0.0201313
1368.4	0.0168029
1369.59	0.0175945
1370.77	0.0197639
1371.96	0.0172114
1373.14	0.0118341
1374.33	0.00805645
1375.51	0.00325278
1376.7	-0.00923035
1377.88	8.53638e-005
1379.07	0.0207419
1380.25	0.00852428
1381.44	0.00885694
1382.62	0.0184755
1383.81	0.0134452
1384.99	0.015892
1386.18	0.024719
1387.36	0.0160196
1388.55	0.0107822
1389.73	0.00805118
1390.92	0.0189535
1392.1	0.0215978
1393.29	0.0288941
1394.47	0.0309805
1395.66	0.0156207
1396.84	0.0116494
1398.03	0.0250647
1399.21	0.021911
1400.4	0.0275233
1401.58	0.0389238
1402.77	0.0332576
1403.95	0.0402662
1405.14	0.0341044
1406.32	0.0391061
1407.51	0.0392237
1408.69	0.042075
1409.88	0.0446189
1411.06	0.0413047
1412.25	0.0450134
1413.43	0.0478279
1414.62	0.0468185
1415.8	0.0537979
1416.99	0.0639313
1418.17	0.0515245
1419.36	0.0499377
1420.54	0.0600708
1421.73	0.0721358
1422.91	0.0848576
1424.1	0.0745958
1425.28	0.0764115
1426.47	0.0786015
1427.65	0.0722209
1428.84	0.071468
1430.02	0.0804438
1431.21	0.0774361
1432.39	0.087147
1433.58	0.094607
1434.76	0.103176
1435.95	0.108094
1437.13	0.0999149
1438.32	0.0979944
1439.5	0.0985314
1440.69	0.116774
1441.87	0.118465
1443.06	0.141812
1444.24	0.162337
1445.43	0.17926
1446.61	0.175889
1447.8	0.194484
1448.98	0.201741
1450.17	0.198053
1451.35	0.206826
1452.54	0.221997
1453.72	0.234907
1454.91	0.224043
1456.09	0.222692
1457.28	0.233652
1458.46	0.242232
1459.65	0.236441
1460.83	0.237154
1462.02	0.247843
1463.2	0.255477
1464.39	0.2547
1465.57	0.242602
1466.76	0.237282
1467.94	0.220824
1469.13	0.21326
1470.31	0.206802
1471.5	0.219049
1472.68	0.21295
1473.87	0.193307
1475.05	0.190338
1476.24	0.161158
1477.42	0.158148
1478.61	0.153007
1479.79	0.159798
1480.98	0.145025
1482.16	0.13783
1483.35	0.133658
1484.53	0.130188
1485.72	0.127874
1486.9	0.123844
1488.09	0.113089
1489.27	0.108473
1490.46	0.117549
1491.64	0.109685
1492.83	0.106702
1494.01	0.0982572
1495.2	0.0819909
1496.38	0.0674722
1497.57	0.0619873
1498.75	0.0520767
1499.94	0.0433622
1501.12	0.0489693
1502.31	0.0417026
1503.49	0.0366258
1504.68	0.031502
1505.86	0.0400156
1507.05	0.0324663
1508.23	0.0382115
1509.42	0.0479436
1510.6	0.0275156
1511.79	0.0297524
1512.97	0.031693
1514.16	0.0403159
1515.34	0.0443387
1516.53	0.0434069
1517.71	0.0332769
1518.9	0.0229393
1520.08	0.0199833
1521.27	0.017781
1522.45	0.0159584
1523.64	0.0189253
1524.82	0.0149165
1526.01	0.0251719
1527.19	0.0475666
1528.38	0.0466829
1529.56	0.0407403
1530.75	0.0369949
1531.93	0.0397338
1533.12	0.0420114
1534.3	0.0516076
1535.49	0.0647051
1536.67	0.0685961
1537.86	0.0738833
1539.04	0.0690392
1540.23	0.066479
1541.41	0.0682114
1542.6	0.0584193
1543.78	0.0448825
1544.97	0.0447174
1546.15	0.0415932
1547.34	0.03737
1548.52	0.0345921
1549.71	0.040505
1550.89	0.0437314
1552.08	0.0357977
1553.26	0.0373477
1554.45	0.0414332
1555.63	0.0412971
1556.82	0.0428377
1558	0.0405683
1559.19	0.0455325
1560.37	0.0489837
1561.56	0.0568598
1562.74	0.0672261
1563.93	0.0679474
1565.11	0.069801
1566.3	0.0584809
1567.48	0.0483912
1568.67	0.0548858
1569.85	0.0548809
1571.04	0.0519144
1572.22	0.044805
1573.41	0.0398511
1574.59	0.038593
1575.78	0.0343981
1576.96	0.0280505
1578.15	0.018386
1579.33	0.0175163
1580.52	0.0221205
1581.7	0.0281997
1582.89	0.0370133
1584.07	0.0387508
1585.26	0.0347976
1586.44	0.0350087
1587.63	0.0304955
1588.81	0.0398721
1590	0.048486
1591.18	0.0591647
1592.37	0.064108
1593.55	0.0690575
1594.74	0.0737751
1595.92	0.0724707
1597.11	0.0698899
1598.29	0.067796
1599.48	0.0682796
1600.66	0.0773001
1601.85	0.0767171
1603.03	0.0783003
1604.22	0.077546
1605.4	0.0719471
1606.59	0.0613846
1607.77	0.0558228
1608.96	0.0612979
1610.14	0.0587712
1611.33	0.0574483
1612.51	0.0517445
1613.7	0.0495115
1614.88	0.0406498
1616.07	0.0310386
1617.25	0.0212926
1618.44	0.0190684
1619.62	0.0252563
1620.81	0.0268616
1621.99	0.0164403
1623.18	0.01824
1624.36	0.00227888
1625.55	-0.00538901
1626.73	0.00359713
1627.92	0.0114176
1629.1	0.00810263
1630.29	0.00567798
1631.47	0.00458729
1632.66	0.00679781
1633.84	0.0252667
1635.03	0.0133209
1636.21	0.0130519
1637.4	0.0247119
1638.58	0.0211201
1639.77	0.0355546
1640.95	0.0322338
1642.14	0.0246592
1643.32	0.0233003
1644.51	0.0339203
1645.69	0.041333
1646.88	0.051612
1648.06	0.0528371
1649.25	0.0442511
1650.43	0.0377073
1651.62	0.0469654
1652.8	0.0437986
1653.99	0.0363
1655.17	0.0301351
1656.36	0.0310139
1657.54	0.039266
1658.73	0.0450733
1659.91	0.0442228
1661.1	0.0432262
1662.28	0.0327485
1663.47	0.0342285
1664.65	0.0324589
1665.84	0.0331939
1667.02	0.0383948
1668.21	0.0395142
1669.39	0.0461916
1670.58	0.0569057
1671.76	0.058859
1672.95	0.049665
1674.13	0.0284697
1675.32	0.0126831
1676.5	0.01397
1677.69	0.0210066
1678.87	0.025559
1680.06	0.0243198
1681.24	0.0302548
1682.43	0.0294382
1683.61	0.0257244
1684.8	0.031163
1685.98	0.0281716
1687.17	0.0313359
1688.35	0.0371165
1689.54	0.0497555
1690.72	0.0612879
1691.91	0.0661479
1693.09	0.0636193
1694.28	0.0613918
1695.46	0.059606
1696.65	0.0729749
1697.83	0.0661201
1699.02	0.0743596
1700.2	0.0781058
1701.39	0.080519
1702.57	0.0839349
1703.76	0.0855473
1704.94	0.0795037
1706.13	0.0797686
1707.31	0.0827908
1708.5	0.084753
1709.68	0.0902422
1710.87	0.0947415
1712.05	0.0920306
1713.24	0.0828869
1714.42	0.0828799
1715.61	0.0905317
1716.79	0.0905479
1717.98	0.0908162
1719.16	0.0955306
1720.35	0.0927282
1721.53	0.0892587
1722.72	0.0888632
1723.9	0.0894695
1725.09	0.0902452
1726.27	0.0918951
1727.46	0.0875819
1728.64	0.0872108
1729.83	0.096347
1731.01	0.0842765
1732.2	0.0830664
1733.38	0.0850318
1734.57	0.0826051
1735.75	0.08418
1736.94	0.0932241
1738.12	0.100394
1739.31	0.101838
1740.49	0.0986387
1741.68	0.088949
1742.86	0.0842781
1744.05	0.0808267
1745.23	0.0777104
1746.42	0.0837068
1747.6	0.0825231
1748.79	0.0752093
1749.97	0.0682331
1751.16	0.0653145
1752.34	0.0590517
1753.53	0.0604071
1754.71	0.0596474
1755.9	0.0630481
1757.08	0.0668147
1758.27	0.0666087
1759.45	0.0601781
1760.64	0.0623273
1761.82	0.0548472
1763.01	0.0393969
1764.19	0.0249288
1765.38	0.0208618
1766.56	0.0171286
1767.74	0.0337098
1768.93	0.0332801
1770.12	0.0291551
1771.3	0.0211262
1772.49	0.0135817
1773.67	0.0140665
1774.85	0.0151308
1776.04	0.0188446
1777.23	0.00872834
1778.41	0.0160028
1779.6	0.0210751
1780.78	0.0276304
1781.97	0.0313047
1783.15	0.025866
1784.34	0.0177546
1785.52	0.0186562
1786.7	0.0152957
1787.89	0.0200913
1789.08	0.0157793
1790.26	0.0118334
1791.45	0.00508439
1792.63	0.0045507
1793.81	-0.000788291
1795	-0.00524976
