405	0.0484073
406.185	0.0315554
407.37	0.0304738
408.555	0.0393717
409.74	0.054268
410.925	0.0727499
412.11	0.0916008
413.295	0.106165
414.48	0.114645
415.665	0.129307
416.85	0.145891
418.035	0.153385
419.22	0.176798
420.405	0.199172
421.59	0.209351
422.775	0.226475
423.96	0.241299
425.145	0.268423
426.33	0.276472
427.515	0.275801
428.7	0.269962
429.885	0.262374
431.07	0.255616
432.255	0.250576
433.44	0.246335
434.625	0.238265
435.81	0.221459
436.995	0.202428
438.18	0.196259
439.365	0.187395
440.55	0.174041
441.735	0.162297
442.92	0.146055
444.105	0.129216
445.29	0.110527
446.475	0.0874162
447.66	0.074772
448.845	0.0702906
450.03	0.0673912
451.215	0.0597072
452.4	0.0474579
453.585	0.0422622
454.77	0.0448794
455.955	0.041517
457.14	0.0477216
458.325	0.0444006
459.51	0.0365005
460.695	0.0325857
461.88	0.0299564
463.065	0.0204826
464.25	0.0157966
465.435	0.0250282
466.62	0.0301138
467.805	0.0295449
468.99	0.0252556
470.175	0.0334136
471.36	0.0568875
472.545	0.081213
473.73	0.0954275
474.915	0.114103
476.1	0.143116
477.285	0.177082
478.47	0.208633
479.655	0.245408
480.84	0.289737
482.025	0.340219
483.21	0.392674
484.395	0.438718
485.58	0.471983
486.765	0.513914
487.95	0.569711
489.135	0.618689
490.32	0.652156
491.505	0.675988
492.69	0.700959
493.875	0.72884
495.06	0.751574
496.245	0.780728
497.43	0.790406
498.615	0.798919
499.8	0.804602
500.985	0.807199
502.17	0.809639
503.355	0.806298
504.54	0.797346
505.725	0.798801
506.91	0.802203
508.095	0.775561
509.28	0.752855
510.465	0.727342
511.65	0.69976
512.835	0.674946
514.02	0.647224
515.205	0.611292
516.39	0.572967
517.575	0.538162
518.76	0.516332
519.945	0.485344
521.13	0.452186
522.315	0.420192
523.5	0.397832
524.685	0.369738
525.87	0.331544
527.055	0.303272
528.24	0.295992
529.425	0.283858
530.61	0.281592
531.795	0.269755
532.98	0.259313
534.164	0.261367
535.35	0.266222
536.535	0.267245
537.719	0.263297
538.905	0.252907
540.09	0.240734
541.274	0.242644
542.46	0.238371
543.644	0.230577
544.829	0.235758
546.015	0.239089
547.199	0.236645
548.385	0.232487
549.569	0.22576
550.754	0.217615
551.94	0.229552
553.124	0.226813
554.309	0.221127
555.495	0.223256
556.679	0.213186
557.864	0.208942
559.049	0.210297
560.234	0.204789
561.419	0.19356
562.604	0.191966
563.789	0.197378
564.974	0.20293
566.159	0.209091
567.344	0.20622
568.529	0.203453
569.714	0.203293
570.899	0.200358
572.084	0.200413
573.269	0.207215
574.454	0.208774
575.639	0.200646
576.824	0.210044
578.009	0.201359
579.194	0.203623
580.379	0.204664
581.564	0.198057
582.749	0.187991
583.934	0.178563
585.119	0.169491
586.304	0.160383
587.489	0.15402
588.674	0.149207
589.859	0.146625
591.044	0.132926
592.229	0.117912
593.414	0.0993898
594.599	0.0909034
595.784	0.0892225
596.969	0.09005
598.154	0.0918553
599.339	0.0898335
600.524	0.0852916
601.709	0.0934252
602.894	0.100428
604.079	0.0908816
605.264	0.096127
606.449	0.0953787
607.634	0.0998023
608.819	0.101959
610.004	0.101274
611.189	0.104528
612.374	0.105207
613.559	0.101973
614.744	0.0938246
615.929	0.0887745
617.114	0.0894742
618.299	0.0910785
619.484	0.0883763
620.669	0.083028
621.854	0.0776979
623.039	0.0803068
624.224	0.0871679
625.409	0.083203
626.594	0.0752966
627.779	0.0613384
628.964	0.0614079
630.149	0.055978
631.334	0.0546743
632.519	0.0537593
633.704	0.0588898
634.889	0.0590175
636.074	0.0502409
637.259	0.0384317
638.444	0.0324795
639.629	0.0382502
640.814	0.0333537
641.999	0.0302136
643.184	0.0157345
644.369	0.00618762
645.554	0.00434814
646.739	0.00523728
647.924	0.000977958
649.109	-0.00108557
650.294	-0.0032638
651.479	-0.00868194
652.664	-0.00918046
653.849	-0.00764472
655.034	0.00643092
656.219	0.0189803
657.404	0.0234237
658.589	0.0155029
659.774	0.0177457
660.959	0.0216313
662.144	0.0200523
663.329	0.0219738
664.514	0.0320099
665.699	0.0418979
666.884	0.0472761
668.069	0.0545233
669.254	0.054986
670.439	0.0645592
671.624	0.0724552
672.809	0.076163
673.994	0.0723541
675.179	0.0748498
676.364	0.0864172
677.549	0.102248
678.734	0.116508
679.919	0.124877
681.104	0.132913
682.289	0.148735
683.474	0.152178
684.659	0.162904
685.844	0.174259
687.029	0.181021
688.214	0.186086
689.399	0.186344
690.584	0.188638
691.769	0.190568
692.954	0.191083
694.139	0.19014
695.324	0.185587
696.509	0.178919
697.694	0.174778
698.879	0.163453
700.064	0.146965
701.249	0.135306
702.434	0.12816
703.619	0.118515
704.804	0.106172
705.989	0.0986259
707.174	0.100015
708.359	0.0968965
709.544	0.0871309
710.729	0.0750678
711.914	0.0624231
713.099	0.0566818
714.284	0.0482781
715.469	0.0433608
716.654	0.0416236
717.839	0.042519
719.024	0.0505306
720.209	0.0469626
721.394	0.0442119
722.579	0.0418446
723.764	0.0381025
724.949	0.0365381
726.134	0.0322421
727.319	0.0275292
728.504	0.0314864
729.689	0.0306044
730.874	0.0329677
732.059	0.0382598
733.244	0.0437216
734.429	0.0518845
735.614	0.0453476
736.799	0.040379
737.984	0.0404203
739.169	0.0448454
740.354	0.045473
741.539	0.0378784
742.724	0.0308126
743.909	0.0308872
745.094	0.0328181
746.279	0.0345508
747.464	0.039097
748.649	0.0415922
749.834	0.0457052
751.019	0.0447043
752.204	0.0413412
753.389	0.0288407
754.574	0.0259715
755.759	0.0299909
756.944	0.033885
758.129	0.034904
759.314	0.0344159
760.499	0.0366561
761.684	0.0455512
762.869	0.0524456
764.054	0.0459943
765.239	0.047091
766.424	0.0407353
767.609	0.0460599
768.794	0.0424763
769.979	0.0440538
771.164	0.0402572
772.349	0.0416497
773.534	0.0419801
774.719	0.0354467
775.904	0.0263324
777.089	0.0245302
778.274	0.0319799
779.459	0.037525
780.644	0.0353978
781.829	0.0364527
783.014	0.0413805
784.199	0.0318122
785.384	0.0212618
786.569	0.0108305
787.754	0.0107918
788.939	0.00119258
790.124	0.00527822
791.309	0.012661
792.494	0.0135538
793.679	0.0126014
794.864	0.02184
796.049	0.0241403
797.234	0.0187365
798.419	0.017698
799.604	0.017658
800.789	0.0108178
801.974	0.00168367
803.159	0.00492344
804.344	0.00663141
805.529	0.0030996
806.714	0.0105574
807.899	0.0146495
809.084	0.018744
810.269	0.0208431
811.454	0.0294281
812.639	0.0441979
813.823	0.0421656
815.009	0.0428971
816.194	0.0454837
817.378	0.0534834
818.564	0.0671952
819.748	0.0876352
820.933	0.116677
822.119	0.142415
823.303	0.175115
824.488	0.20353
825.674	0.221311
826.858	0.248429
828.044	0.263618
829.228	0.279
830.413	0.29796
831.599	0.315259
832.783	0.326212
833.968	0.340212
835.153	0.361133
836.338	0.373711
837.523	0.383975
838.708	0.391095
839.893	0.39774
841.078	0.404836
842.263	0.409859
843.448	0.420262
844.633	0.434538
845.818	0.446331
847.003	0.46304
848.188	0.491991
849.373	0.514468
850.558	0.533636
851.743	0.579701
852.928	0.607091
854.113	0.632482
855.298	0.670534
856.483	0.705527
857.668	0.737377
858.853	0.770334
860.038	0.803074
861.223	0.831866
862.408	0.858102
863.593	0.877115
864.778	0.893274
865.963	0.9044
867.148	0.904262
868.333	0.908214
869.518	0.903768
870.703	0.894919
871.888	0.893967
873.073	0.88135
874.258	0.860928
875.443	0.84036
876.628	0.812641
877.813	0.779423
878.998	0.74661
880.183	0.719618
881.368	0.686336
882.553	0.662876
883.738	0.633195
884.923	0.604373
886.108	0.569041
887.293	0.536722
888.478	0.511757
889.663	0.489605
890.848	0.464687
892.033	0.44048
893.218	0.418604
894.403	0.39404
895.588	0.381733
896.773	0.363526
897.958	0.347872
899.143	0.337196
900.328	0.32706
901.513	0.316798
902.698	0.305149
903.883	0.297257
905.068	0.300484
906.253	0.299225
907.438	0.306143
908.623	0.306562
909.808	0.311056
910.993	0.311814
912.178	0.324181
913.363	0.333674
914.548	0.344033
915.733	0.355157
916.918	0.36691
918.103	0.384977
919.288	0.403308
920.473	0.421834
921.658	0.445349
922.843	0.462805
924.028	0.474535
925.213	0.487485
926.398	0.490568
927.583	0.496881
928.768	0.509418
929.953	0.515697
931.138	0.522524
932.323	0.527224
933.508	0.533389
934.693	0.542032
935.878	0.532591
937.063	0.525876
938.248	0.51554
939.433	0.504238
940.618	0.503019
941.803	0.493125
942.988	0.476899
944.173	0.466593
945.358	0.456482
946.543	0.43479
947.728	0.413352
948.913	0.392243
950.098	0.372467
951.283	0.354876
952.468	0.339092
953.653	0.326459
954.838	0.308342
956.023	0.290879
957.208	0.281488
958.393	0.260276
959.578	0.240936
960.763	0.237093
961.948	0.222993
963.133	0.197058
964.318	0.181568
965.503	0.179667
966.688	0.175272
967.873	0.171322
969.058	0.162749
970.243	0.161396
971.428	0.162293
972.613	0.169021
973.798	0.180307
974.983	0.175014
976.168	0.184127
977.353	0.188603
978.538	0.186137
979.723	0.191837
980.908	0.203607
982.093	0.215698
983.278	0.226712
984.463	0.235944
985.648	0.244723
986.833	0.254492
988.018	0.257372
989.203	0.256634
990.388	0.253486
991.573	0.250566
992.758	0.247032
993.943	0.245665
995.128	0.248667
996.313	0.254785
997.498	0.256307
998.683	0.254043
999.868	0.258979
1001.05	0.264866
1002.24	0.265187
1003.42	0.263461
1004.61	0.265326
1005.79	0.266189
1006.98	0.276353
1008.16	0.280494
1009.35	0.280892
1010.53	0.277986
1011.72	0.279921
1012.9	0.275749
1014.09	0.276956
1015.27	0.277286
1016.46	0.284063
1017.64	0.285086
1018.83	0.282008
1020.01	0.287656
1021.2	0.293387
1022.38	0.292125
1023.57	0.303224
1024.75	0.301873
1025.94	0.305759
1027.12	0.3084
1028.31	0.32722
1029.49	0.34026
1030.68	0.348291
1031.86	0.361316
1033.05	0.385166
1034.23	0.406114
1035.42	0.426201
1036.6	0.442266
1037.79	0.454952
1038.97	0.474057
1040.16	0.493621
1041.34	0.510175
1042.53	0.536014
1043.71	0.560676
1044.9	0.582078
1046.08	0.599166
1047.27	0.623153
1048.45	0.654039
1049.64	0.677969
1050.82	0.69318
1052.01	0.706111
1053.19	0.72286
1054.38	0.739073
1055.56	0.754338
1056.75	0.772528
1057.93	0.796149
1059.12	0.818288
1060.3	0.826885
1061.49	0.83171
1062.67	0.843222
1063.86	0.856155
1065.04	0.863335
1066.23	0.863803
1067.41	0.862901
1068.6	0.858925
1069.78	0.855686
1070.97	0.856113
1072.15	0.858455
1073.34	0.860096
1074.52	0.851721
1075.71	0.837076
1076.89	0.811544
1078.08	0.793232
1079.26	0.780295
1080.45	0.765295
1081.63	0.750573
1082.82	0.728032
1084	0.702891
1085.19	0.679125
1086.37	0.658684
1087.56	0.642393
1088.74	0.625555
1089.93	0.601438
1091.11	0.584741
1092.3	0.571473
1093.48	0.552144
1094.67	0.543369
1095.85	0.534757
1097.04	0.521897
1098.22	0.511164
1099.41	0.501851
1100.59	0.493627
1101.78	0.493028
1102.96	0.493071
1104.15	0.495397
1105.33	0.485948
1106.52	0.470366
1107.7	0.46603
1108.89	0.461333
1110.07	0.45156
1111.26	0.446748
1112.44	0.444942
1113.63	0.447215
1114.81	0.449117
1116	0.448848
1117.18	0.446268
1118.37	0.452448
1119.55	0.456827
1120.74	0.452126
1121.92	0.441257
1123.11	0.447142
1124.29	0.454084
1125.48	0.454993
1126.66	0.442667
1127.85	0.438601
1129.03	0.428555
1130.22	0.412594
1131.4	0.396501
1132.59	0.378493
1133.77	0.356669
1134.96	0.335604
1136.14	0.31296
1137.33	0.28733
1138.51	0.266881
1139.7	0.24749
1140.88	0.225038
1142.07	0.197314
1143.25	0.170051
1144.44	0.151371
1145.62	0.126222
1146.81	0.104201
1147.99	0.0903903
1149.18	0.0825782
1150.36	0.0646162
1151.55	0.0514586
1152.73	0.0427347
1153.92	0.0329985
1155.1	0.028912
1156.29	0.0246262
1157.47	0.0181792
1158.66	0.0177651
1159.84	0.0220225
1161.03	0.0254428
1162.21	0.0297805
1163.4	0.0377822
1164.58	0.0467205
1165.77	0.0454727
1166.95	0.0407179
1168.14	0.0538298
1169.32	0.0619711
1170.51	0.0543101
1171.69	0.0462497
1172.88	0.0406022
1174.06	0.0451099
1175.25	0.0489053
1176.43	0.0399116
1177.62	0.0301157
1178.8	0.0251281
1179.99	0.0201723
1181.17	0.0134479
1182.36	0.00793979
1183.54	0.00740621
1184.73	0.00378945
1185.91	-0.00104195
1187.1	-0.0023649
1188.28	-0.000380683
1189.47	0.00627165
1190.65	0.00631988
1191.84	-0.000604768
1193.02	-0.00566769
1194.21	-0.0055565
1195.39	0.00109466
1196.58	0.0133382
1197.76	0.0248323
1198.95	0.0360749
1200.13	0.0430812
1201.32	0.0527861
1202.5	0.058865
1203.69	0.056145
1204.87	0.058798
1206.06	0.0672422
1207.24	0.0681784
1208.43	0.0735602
1209.61	0.0875299
1210.8	0.0946897
1211.98	0.100905
1213.17	0.10039
1214.35	0.0869255
1215.54	0.0784109
1216.72	0.0749945
1217.91	0.0744672
1219.09	0.0569286
1220.28	0.0614754
1221.46	0.0594248
1222.65	0.0627073
1223.83	0.0520111
1225.02	0.0465652
1226.2	0.0448235
1227.39	0.040372
1228.57	0.0469417
1229.76	0.0459111
1230.94	0.0349382
1232.13	0.0353394
1233.31	0.0352336
1234.5	0.0349454
1235.68	0.0395322
1236.87	0.047599
1238.05	0.0457815
1239.24	0.0472688
1240.42	0.0440682
1241.61	0.049033
1242.79	0.0567463
1243.98	0.0549883
1245.16	0.0458176
1246.35	0.042477
1247.53	0.0543262
1248.72	0.0657112
1249.9	0.0736605
1251.09	0.0749919
1252.27	0.0729251
1253.46	0.0719579
1254.64	0.083401
1255.83	0.0855698
1257.01	0.0911555
1258.2	0.10416
1259.38	0.108332
1260.57	0.110745
1261.75	0.112785
1262.94	0.125634
1264.12	0.127959
1265.31	0.129892
1266.49	0.132621
1267.68	0.141117
1268.86	0.154367
1270.05	0.1726
1271.23	0.176293
1272.42	0.169543
1273.6	0.182543
1274.79	0.189096
1275.97	0.191462
1277.16	0.194683
1278.34	0.205909
1279.53	0.209177
1280.71	0.208882
1281.9	0.211982
1283.08	0.216575
1284.27	0.218091
1285.45	0.219213
1286.64	0.219776
1287.82	0.217417
1289.01	0.220512
1290.19	0.217562
1291.38	0.214511
1292.56	0.211154
1293.75	0.216664
1294.93	0.218862
1296.12	0.223497
1297.3	0.224351
1298.49	0.223019
1299.67	0.234203
1300.86	0.224508
1302.04	0.218453
1303.23	0.211624
1304.41	0.215008
1305.6	0.219925
1306.78	0.234541
1307.97	0.235764
1309.15	0.241174
1310.34	0.250799
1311.52	0.245273
1312.71	0.244987
1313.89	0.241519
1315.08	0.248379
1316.26	0.253417
1317.45	0.25858
1318.63	0.274468
1319.82	0.281799
1321	0.290033
1322.19	0.294018
1323.37	0.284588
1324.56	0.285966
1325.74	0.283759
1326.93	0.279886
1328.11	0.282257
1329.3	0.284459
1330.48	0.299406
1331.67	0.312345
1332.85	0.312527
1334.04	0.310346
1335.22	0.306579
1336.41	0.310006
1337.59	0.308964
1338.78	0.306521
1339.96	0.312273
1341.15	0.317272
1342.33	0.318755
1343.52	0.326562
1344.7	0.329048
1345.89	0.326743
1347.07	0.322081
1348.26	0.318368
1349.44	0.317576
1350.63	0.319584
1351.81	0.324133
1353	0.326936
1354.18	0.332143
1355.37	0.332991
1356.55	0.328501
1357.74	0.330444
1358.92	0.326421
1360.11	0.327966
1361.29	0.32626
1362.48	0.327731
1363.66	0.334218
1364.85	0.32684
1366.03	0.316804
1367.22	0.313776
1368.4	0.315105
1369.59	0.31338
1370.77	0.315418
1371.96	0.31873
1373.14	0.319194
1374.33	0.31777
1375.51	0.327228
1376.7	0.33269
1377.88	0.327875
1379.07	0.334912
1380.25	0.33161
1381.44	0.336772
1382.62	0.34582
1383.81	0.358935
1384.99	0.356361
1386.18	0.353232
1387.36	0.351921
1388.55	0.348427
1389.73	0.349661
1390.92	0.35884
1392.1	0.357464
1393.29	0.351476
1394.47	0.357751
1395.66	0.362092
1396.84	0.361543
1398.03	0.362752
1399.21	0.36828
1400.4	0.367629
1401.58	0.373994
1402.77	0.38007
1403.95	0.386085
1405.14	0.382672
1406.32	0.383562
1407.51	0.380972
1408.69	0.382474
1409.88	0.390778
1411.06	0.39217
1412.25	0.397236
1413.43	0.404584
1414.62	0.409504
1415.8	0.406275
1416.99	0.402567
1418.17	0.401428
1419.36	0.404152
1420.54	0.408154
1421.73	0.413737
1422.91	0.417042
1424.1	0.431097
1425.28	0.440863
1426.47	0.447763
1427.65	0.456184
1428.84	0.456101
1430.02	0.458956
1431.21	0.455525
1432.39	0.461422
1433.58	0.470117
1434.76	0.474921
1435.95	0.477255
1437.13	0.482196
1438.32	0.487647
1439.5	0.493823
1440.69	0.494182
1441.87	0.49667
1443.06	0.493892
1444.24	0.497631
1445.43	0.50125
1446.61	0.504501
1447.8	0.512545
1448.98	0.525094
1450.17	0.53075
1451.35	0.542052
1452.54	0.560418
1453.72	0.574591
1454.91	0.594763
1456.09	0.620193
1457.28	0.64213
1458.46	0.661243
1459.65	0.685171
1460.83	0.71458
1462.02	0.746094
1463.2	0.769973
1464.39	0.792658
1465.57	0.820408
1466.76	0.845342
1467.94	0.868605
1469.13	0.888757
1470.31	0.904099
1471.5	0.916114
1472.68	0.92629
1473.87	0.932736
1475.05	0.939344
1476.24	0.948061
1477.42	0.948225
1478.61	0.933011
1479.79	0.925544
1480.98	0.92109
1482.16	0.905603
1483.35	0.890592
1484.53	0.87352
1485.72	0.848485
1486.9	0.827467
1488.09	0.801886
1489.27	0.763962
1490.46	0.731854
1491.64	0.700157
1492.83	0.670009
1494.01	0.642575
1495.2	0.616441
1496.38	0.595871
1497.57	0.571801
1498.75	0.552175
1499.94	0.537984
1501.12	0.51818
1502.31	0.501372
1503.49	0.486064
1504.68	0.471738
1505.86	0.46731
1507.05	0.462992
1508.23	0.455878
1509.42	0.455241
1510.6	0.448512
1511.79	0.448464
1512.97	0.449118
1514.16	0.449235
1515.34	0.445368
1516.53	0.437455
1517.71	0.436944
1518.9	0.433296
1520.08	0.431104
1521.27	0.433418
1522.45	0.439705
1523.64	0.432839
1524.82	0.433595
1526.01	0.421258
1527.19	0.413808
1528.38	0.404234
1529.56	0.394196
1530.75	0.388589
1531.93	0.387289
1533.12	0.380557
1534.3	0.375118
1535.49	0.372203
1536.67	0.367247
1537.86	0.359048
1539.04	0.348429
1540.23	0.348771
1541.41	0.338791
1542.6	0.332965
1543.78	0.331651
1544.97	0.330126
1546.15	0.330423
1547.34	0.321376
1548.52	0.310371
1549.71	0.304176
1550.89	0.299515
1552.08	0.295269
1553.26	0.287325
1554.45	0.279147
1555.63	0.26968
1556.82	0.261678
1558	0.263178
1559.19	0.259566
1560.37	0.253567
1561.56	0.242936
1562.74	0.233122
1563.93	0.230384
1565.11	0.231535
1566.3	0.230148
1567.48	0.223711
1568.67	0.22098
1569.85	0.216256
1571.04	0.210378
1572.22	0.207276
1573.41	0.199242
1574.59	0.188517
1575.78	0.185685
1576.96	0.18078
1578.15	0.176974
1579.33	0.17547
1580.52	0.170344
1581.7	0.162482
1582.89	0.15608
1584.07	0.148817
1585.26	0.142474
1586.44	0.1399
1587.63	0.137939
1588.81	0.131674
1590	0.131867
1591.18	0.126622
1592.37	0.122987
1593.55	0.124805
1594.74	0.121593
1595.92	0.116197
1597.11	0.110984
1598.29	0.110769
1599.48	0.11386
1600.66	0.11426
1601.85	0.116714
1603.03	0.119096
1604.22	0.11764
1605.4	0.119793
1606.59	0.119839
1607.77	0.118716
1608.96	0.111715
1610.14	0.110524
1611.33	0.10997
1612.51	0.105732
1613.7	0.106086
1614.88	0.0985118
1616.07	0.0852222
1617.25	0.0781115
1618.44	0.0698558
1619.62	0.0638761
1620.81	0.0558428
1621.99	0.047407
1623.18	0.0448276
1624.36	0.0395673
1625.55	0.0344952
1626.73	0.0234231
1627.92	0.0180483
1629.1	0.0154203
1630.29	0.00496493
1631.47	-0.00133695
1632.66	-0.0105657
1633.84	-0.00558954
1635.03	-0.00480749
1636.21	-0.00501333
1637.4	0.000286491
1638.58	0.00101894
1639.77	0.00617555
1640.95	0.00977606
1642.14	0.017689
1643.32	0.0216442
1644.51	0.0270963
1645.69	0.0393341
1646.88	0.0479752
1648.06	0.0610237
1649.25	0.0576511
1650.43	0.0643976
1651.62	0.0688622
1652.8	0.0696818
1653.99	0.071407
1655.17	0.0741843
1656.36	0.077314
1657.54	0.0820015
1658.73	0.0894818
1659.91	0.0937878
1661.1	0.0963415
1662.28	0.099593
1663.47	0.109661
1664.65	0.113192
1665.84	0.116685
1667.02	0.114062
1668.21	0.118829
1669.39	0.117949
1670.58	0.115769
1671.76	0.121677
1672.95	0.12119
1674.13	0.120397
1675.32	0.123899
1676.5	0.120277
1677.69	0.11844
1678.87	0.115676
1680.06	0.117389
1681.24	0.115919
1682.43	0.123073
1683.61	0.128002
1684.8	0.133196
1685.98	0.138826
1687.17	0.135824
1688.35	0.135865
1689.54	0.133305
1690.72	0.127341
1691.91	0.124824
1693.09	0.129443
1694.28	0.134605
1695.46	0.132516
1696.65	0.126381
1697.83	0.128503
1699.02	0.123187
1700.2	0.125062
1701.39	0.123104
1702.57	0.118916
1703.76	0.113725
1704.94	0.112123
1706.13	0.118127
1707.31	0.121301
1708.5	0.121631
1709.68	0.11944
1710.87	0.115597
1712.05	0.118513
1713.24	0.121146
1714.42	0.118325
1715.61	0.113217
1716.79	0.104515
1717.98	0.107045
1719.16	0.116895
1720.35	0.122205
1721.53	0.119765
1722.72	0.110247
1723.9	0.103518
1725.09	0.100619
1726.27	0.100924
1727.46	0.0996967
1728.64	0.0952344
1729.83	0.0913285
1731.01	0.0893253
1732.2	0.0864706
1733.38	0.0853855
1734.57	0.083944
1735.75	0.0780783
1736.94	0.0770252
1738.12	0.0799402
1739.31	0.086143
1740.49	0.0856506
1741.68	0.0831912
1742.86	0.0872588
1744.05	0.0833226
1745.23	0.0828574
1746.42	0.0831611
1747.6	0.0839547
1748.79	0.0893895
1749.97	0.0866023
1751.16	0.0862104
1752.34	0.0876884
1753.53	0.084167
1754.71	0.0782553
1755.9	0.0740727
1757.08	0.0725583
1758.27	0.068617
1759.45	0.0641154
1760.64	0.0611917
1761.82	0.0618911
1763.01	0.0652229
1764.19	0.0610186
1765.38	0.0573878
1766.56	0.0484644
1767.74	0.0408266
1768.93	0.0384864
1770.12	0.0464381
1771.3	0.0491666
1772.49	0.047816
1773.67	0.0356725
1774.85	0.0303312
1776.04	0.0330343
1777.23	0.0292178
1778.41	0.0213436
1779.6	0.0181664
1780.78	0.0151466
1781.97	0.0145311
1783.15	0.0139553
1784.34	0.0107636
1785.52	0.00289185
1786.7	-0.000912376
1787.89	-0.00268898
1789.08	0.00449895
1790.26	0.00795649
1791.45	0.00757847
1792.63	0.00751314
1793.81	0.00901148
1795	0.0112882
