405	-0.0105657
406.185	0.0062049
407.37	0.0257289
408.555	0.0452227
409.74	0.0634874
410.925	0.0816144
412.11	0.101906
413.295	0.123445
414.48	0.13469
415.665	0.158249
416.85	0.174024
418.035	0.191034
419.22	0.209864
420.405	0.225129
421.59	0.235123
422.775	0.246809
423.96	0.26799
425.145	0.268979
426.33	0.273277
427.515	0.273197
428.7	0.275376
429.885	0.277667
431.07	0.273514
432.255	0.260887
433.44	0.247556
434.625	0.247933
435.81	0.236757
436.995	0.230434
438.18	0.214435
439.365	0.199726
440.55	0.187611
441.735	0.173969
442.92	0.164392
444.105	0.154043
445.29	0.143998
446.475	0.138671
447.66	0.132311
448.845	0.128977
450.03	0.127947
451.215	0.126991
452.4	0.124097
453.585	0.115022
454.77	0.107339
455.955	0.107427
457.14	0.094629
458.325	0.0937016
459.51	0.0959997
460.695	0.10035
461.88	0.105807
463.065	0.101698
464.25	0.0994586
465.435	0.0988208
466.62	0.105452
467.805	0.116772
468.99	0.125876
470.175	0.132585
471.36	0.146769
472.545	0.173872
473.73	0.203526
474.915	0.231731
476.1	0.249399
477.285	0.279591
478.47	0.316145
479.655	0.351991
480.84	0.386941
482.025	0.427417
483.21	0.474127
484.395	0.517288
485.58	0.57074
486.765	0.60593
487.95	0.645922
489.135	0.686301
490.32	0.72794
491.505	0.764458
492.69	0.795329
493.875	0.824298
495.06	0.848496
496.245	0.871328
497.43	0.905268
498.615	0.92452
499.8	0.938844
500.985	0.945963
502.17	0.948225
503.355	0.947504
504.54	0.941613
505.725	0.928877
506.91	0.916577
508.095	0.896502
509.28	0.873917
510.465	0.844117
511.65	0.820713
512.835	0.801611
514.02	0.777605
515.205	0.750249
516.39	0.724484
517.575	0.680028
518.76	0.642528
519.945	0.611327
521.13	0.585477
522.315	0.553473
523.5	0.524336
524.685	0.497502
525.87	0.468421
527.055	0.440936
528.24	0.42353
529.425	0.40747
530.61	0.38812
531.795	0.371038
532.98	0.3517
534.164	0.332579
535.35	0.321609
536.535	0.317437
537.719	0.314793
538.905	0.311278
540.09	0.302462
541.274	0.296095
542.46	0.28886
543.644	0.281578
544.829	0.276603
546.015	0.274323
547.199	0.270968
548.385	0.271673
549.569	0.278187
550.754	0.279545
551.94	0.275963
553.124	0.26863
554.309	0.274279
555.495	0.274941
556.679	0.276722
557.864	0.27372
559.049	0.275387
560.234	0.282133
561.419	0.286956
562.604	0.291763
563.789	0.29875
564.974	0.318198
566.159	0.319494
567.344	0.319427
568.529	0.317086
569.714	0.313572
570.899	0.311676
572.084	0.312988
573.269	0.31645
574.454	0.317662
575.639	0.311573
576.824	0.309141
578.009	0.31325
579.194	0.300158
580.379	0.289669
581.564	0.284799
582.749	0.28492
583.934	0.275919
585.119	0.263309
586.304	0.261749
587.489	0.252986
588.674	0.236876
589.859	0.238606
591.044	0.235116
592.229	0.227209
593.414	0.218489
594.599	0.212093
595.784	0.209928
596.969	0.207278
598.154	0.202516
599.339	0.200216
600.524	0.196647
601.709	0.194012
602.894	0.190996
604.079	0.188707
605.264	0.186614
606.449	0.18737
607.634	0.187302
608.819	0.185735
610.004	0.180861
611.189	0.175791
612.374	0.177805
613.559	0.178425
614.744	0.179085
615.929	0.173004
617.114	0.164421
618.299	0.166878
619.484	0.1718
620.669	0.1687
621.854	0.157066
623.039	0.145672
624.224	0.141578
625.409	0.140366
626.594	0.133627
627.779	0.13693
628.964	0.137497
630.149	0.132723
631.334	0.128662
632.519	0.12266
633.704	0.11588
634.889	0.111237
636.074	0.105492
637.259	0.0945398
638.444	0.0772876
639.629	0.0574884
640.814	0.0566625
641.999	0.0596591
643.184	0.0536661
644.369	0.0425043
645.554	0.0304569
646.739	0.0162937
647.924	0.00956202
649.109	0.00830571
650.294	0.00926954
651.479	0.00899668
652.664	0.00394485
653.849	0.00237962
655.034	0.00118938
656.219	0.0149563
657.404	0.0147951
658.589	0.0230121
659.774	0.022025
660.959	0.0220225
662.144	0.0303284
663.329	0.0392393
664.514	0.046449
665.699	0.0550399
666.884	0.0591572
668.069	0.0546784
669.254	0.0589481
670.439	0.0608892
671.624	0.0644785
672.809	0.0657616
673.994	0.0675616
675.179	0.0688789
676.364	0.0786106
677.549	0.0965791
678.734	0.111485
679.919	0.118353
681.104	0.12334
682.289	0.128988
683.474	0.132376
684.659	0.141535
685.844	0.154439
687.029	0.156661
688.214	0.160767
689.399	0.160941
690.584	0.162692
691.769	0.167341
692.954	0.17363
694.139	0.17491
695.324	0.166002
696.509	0.152281
697.694	0.142123
698.879	0.132733
700.064	0.118302
701.249	0.112956
702.434	0.113358
703.619	0.105147
704.804	0.0920198
705.989	0.0895175
707.174	0.0876289
708.359	0.0826323
709.544	0.0814823
710.729	0.0816142
711.914	0.0745456
713.099	0.0657952
714.284	0.0635619
715.469	0.0729122
716.654	0.0684116
717.839	0.0745023
719.024	0.0835227
720.209	0.0855532
721.394	0.0813567
722.579	0.0834463
723.764	0.0875019
724.949	0.0880842
726.134	0.0871982
727.319	0.0887051
728.504	0.0910987
729.689	0.0906313
730.874	0.0958566
732.059	0.0957755
733.244	0.0991005
734.429	0.0958545
735.614	0.097954
736.799	0.103058
737.984	0.0994778
739.169	0.0892493
740.354	0.0893719
741.539	0.0902646
742.724	0.0911994
743.909	0.0992891
745.094	0.103481
746.279	0.100636
747.464	0.101229
748.649	0.0978571
749.834	0.099261
751.019	0.103213
752.204	0.109468
753.389	0.111133
754.574	0.110442
755.759	0.112939
756.944	0.119513
758.129	0.125816
759.314	0.125011
760.499	0.123304
761.684	0.125251
762.869	0.120875
764.054	0.11396
765.239	0.119163
766.424	0.117018
767.609	0.121429
768.794	0.116964
769.979	0.118987
771.164	0.107795
772.349	0.10735
773.534	0.102072
774.719	0.0882152
775.904	0.080581
777.089	0.0786842
778.274	0.077475
779.459	0.0750316
780.644	0.0711219
781.829	0.0703304
783.014	0.0714548
784.199	0.0680248
785.384	0.0648332
786.569	0.0530313
787.754	0.0497713
788.939	0.0422606
790.124	0.0418972
791.309	0.035915
792.494	0.0380009
793.679	0.044761
794.864	0.0396145
796.049	0.0374858
797.234	0.0403158
798.419	0.0424039
799.604	0.0420966
800.789	0.035218
801.974	0.032228
803.159	0.0317712
804.344	0.022035
805.529	0.011843
806.714	0.0075182
807.899	0.0101253
809.084	0.0177524
810.269	0.0216562
811.454	0.0150165
812.639	0.0146233
813.823	0.0246473
815.009	0.0281589
816.194	0.0309276
817.378	0.0425082
818.564	0.0605372
819.748	0.0829761
820.933	0.104796
822.119	0.120795
823.303	0.145043
824.488	0.174729
825.674	0.201974
826.858	0.226223
828.044	0.250301
829.228	0.264231
830.413	0.297672
831.599	0.320444
832.783	0.34269
833.968	0.362754
835.153	0.378259
836.338	0.385178
837.523	0.393341
838.708	0.401373
839.893	0.406958
841.078	0.412798
842.263	0.425255
843.448	0.443018
844.633	0.453963
845.818	0.469837
847.003	0.485045
848.188	0.516379
849.373	0.529202
850.558	0.543326
851.743	0.554943
852.928	0.575184
854.113	0.605405
855.298	0.639062
856.483	0.670892
857.668	0.690386
858.853	0.721026
860.038	0.750644
861.223	0.77154
862.408	0.78854
863.593	0.8014
864.778	0.81292
865.963	0.819642
867.148	0.81828
868.333	0.824064
869.518	0.832502
870.703	0.836305
871.888	0.829
873.073	0.814107
874.258	0.798858
875.443	0.781367
876.628	0.778203
877.813	0.755156
878.998	0.740093
880.183	0.719755
881.368	0.701907
882.553	0.684435
883.738	0.662784
884.923	0.649931
886.108	0.641178
887.293	0.622695
888.478	0.60241
889.663	0.580934
890.848	0.553725
892.033	0.527929
893.218	0.505931
894.403	0.486775
895.588	0.474879
896.773	0.470835
897.958	0.463026
899.143	0.45637
900.328	0.448764
901.513	0.441335
902.698	0.440808
903.883	0.437332
905.068	0.427517
906.253	0.429938
907.438	0.425275
908.623	0.435963
909.808	0.451138
910.993	0.466336
912.178	0.480036
913.363	0.487915
914.548	0.490287
915.733	0.499908
916.918	0.50719
918.103	0.513948
919.288	0.525486
920.473	0.534577
921.658	0.541428
922.843	0.552154
924.028	0.567013
925.213	0.580209
926.398	0.595425
927.583	0.605486
928.768	0.620506
929.953	0.623053
931.138	0.628559
932.323	0.634633
933.508	0.634067
934.693	0.63253
935.878	0.643937
937.063	0.643314
938.248	0.643779
939.433	0.641231
940.618	0.635203
941.803	0.621974
942.988	0.603771
944.173	0.58787
945.358	0.571781
946.543	0.549041
947.728	0.52886
948.913	0.512064
950.098	0.497127
951.283	0.476645
952.468	0.457565
953.653	0.440048
954.838	0.415618
956.023	0.395424
957.208	0.38334
958.393	0.367012
959.578	0.348591
960.763	0.341249
961.948	0.333771
963.133	0.325918
964.318	0.328606
965.503	0.325486
966.688	0.322876
967.873	0.321886
969.058	0.313365
970.243	0.323154
971.428	0.312311
972.613	0.313289
973.798	0.314266
974.983	0.303176
976.168	0.298979
977.353	0.316653
978.538	0.311999
979.723	0.311004
980.908	0.31074
982.093	0.309357
983.278	0.313972
984.463	0.31959
985.648	0.321133
986.833	0.321224
988.018	0.320492
989.203	0.317576
990.388	0.314353
991.573	0.315492
992.758	0.322651
993.943	0.327334
995.128	0.321226
996.313	0.318241
997.498	0.320021
998.683	0.3204
999.868	0.32519
1001.05	0.322853
1002.24	0.314907
1003.42	0.312581
1004.61	0.31778
1005.79	0.326941
1006.98	0.334026
1008.16	0.349207
1009.35	0.35758
1010.53	0.367944
1011.72	0.369092
1012.9	0.370717
1014.09	0.382046
1015.27	0.38847
1016.46	0.396842
1017.64	0.401705
1018.83	0.401077
1020.01	0.408768
1021.2	0.408382
1022.38	0.407919
1023.57	0.401399
1024.75	0.404086
1025.94	0.403163
1027.12	0.40148
1028.31	0.400502
1029.49	0.407025
1030.68	0.4238
1031.86	0.432581
1033.05	0.436924
1034.23	0.454477
1035.42	0.462994
1036.6	0.479665
1037.79	0.504833
1038.97	0.52761
1040.16	0.542692
1041.34	0.562115
1042.53	0.585988
1043.71	0.604753
1044.9	0.628635
1046.08	0.651757
1047.27	0.670379
1048.45	0.68969
1049.64	0.709399
1050.82	0.731109
1052.01	0.749069
1053.19	0.767443
1054.38	0.783644
1055.56	0.798655
1056.75	0.81652
1057.93	0.836166
1059.12	0.847452
1060.3	0.851794
1061.49	0.85681
1062.67	0.862783
1063.86	0.866606
1065.04	0.868463
1066.23	0.866297
1067.41	0.859248
1068.6	0.853802
1069.78	0.847702
1070.97	0.838802
1072.15	0.824831
1073.34	0.803914
1074.52	0.777429
1075.71	0.752984
1076.89	0.736671
1078.08	0.723114
1079.26	0.704961
1080.45	0.684705
1081.63	0.667397
1082.82	0.65282
1084	0.633407
1085.19	0.614781
1086.37	0.594059
1087.56	0.577405
1088.74	0.557302
1089.93	0.547338
1091.11	0.544654
1092.3	0.538103
1093.48	0.532723
1094.67	0.52785
1095.85	0.520385
1097.04	0.513612
1098.22	0.511175
1099.41	0.501317
1100.59	0.490169
1101.78	0.483501
1102.96	0.480374
1104.15	0.482115
1105.33	0.479004
1106.52	0.480356
1107.7	0.472639
1108.89	0.458263
1110.07	0.451248
1111.26	0.452024
1112.44	0.44627
1113.63	0.441363
1114.81	0.436046
1116	0.434059
1117.18	0.436007
1118.37	0.428282
1119.55	0.42817
1120.74	0.420704
1121.92	0.416047
1123.11	0.415185
1124.29	0.407063
1125.48	0.407
1126.66	0.403703
1127.85	0.397805
1129.03	0.389395
1130.22	0.37384
1131.4	0.365743
1132.59	0.353938
1133.77	0.337855
1134.96	0.319945
1136.14	0.307525
1137.33	0.284951
1138.51	0.268999
1139.7	0.242425
1140.88	0.221241
1142.07	0.202653
1143.25	0.178706
1144.44	0.16111
1145.62	0.140116
1146.81	0.121624
1147.99	0.110834
1149.18	0.0969596
1150.36	0.0860326
1151.55	0.0792172
1152.73	0.0701745
1153.92	0.0640709
1155.1	0.0619119
1156.29	0.058702
1157.47	0.0586348
1158.66	0.0546033
1159.84	0.0525511
1161.03	0.0462631
1162.21	0.0414316
1163.4	0.0404404
1164.58	0.0390498
1165.77	0.0374028
1166.95	0.0391392
1168.14	0.0369716
1169.32	0.0311873
1170.51	0.0298239
1171.69	0.0269775
1172.88	0.0227352
1174.06	0.020547
1175.25	0.0157455
1176.43	0.00768812
1177.62	0.00633032
1178.8	0.0104327
1179.99	0.0169977
1181.17	0.0278422
1182.36	0.0331056
1183.54	0.028842
1184.73	0.0220878
1185.91	0.0198078
1187.1	0.0169019
1188.28	0.0120477
1189.47	0.0121148
1190.65	0.0121525
1191.84	0.0105416
1193.02	0.0097648
1194.21	0.0117862
1195.39	0.0141127
1196.58	0.0209429
1197.76	0.0251204
1198.95	0.018439
1200.13	0.0166212
1201.32	0.017812
1202.5	0.0186806
1203.69	0.0240242
1204.87	0.0329656
1206.06	0.0399998
1207.24	0.0402062
1208.43	0.0410255
1209.61	0.0430358
1210.8	0.0525633
1211.98	0.0565318
1213.17	0.0653681
1214.35	0.0660378
1215.54	0.0628914
1216.72	0.0623098
1217.91	0.0637687
1219.09	0.0718383
1220.28	0.0794201
1221.46	0.0819426
1222.65	0.0861329
1223.83	0.0888152
1225.02	0.0945466
1226.2	0.0957482
1227.39	0.0974825
1228.57	0.0980052
1229.76	0.0927534
1230.94	0.0842699
1232.13	0.0788542
1233.31	0.0811745
1234.5	0.0864345
1235.68	0.0910051
1236.87	0.0887887
1238.05	0.0882003
1239.24	0.0873719
1240.42	0.0826258
1241.61	0.0898015
1242.79	0.0948675
1243.98	0.100562
1245.16	0.1104
1246.35	0.120741
1247.53	0.133786
1248.72	0.145091
1249.9	0.160877
1251.09	0.170559
1252.27	0.184134
1253.46	0.206291
1254.64	0.228327
1255.83	0.23951
1257.01	0.257923
1258.2	0.271113
1259.38	0.27622
1260.57	0.299265
1261.75	0.302856
1262.94	0.310596
1264.12	0.323984
1265.31	0.330727
1266.49	0.336156
1267.68	0.330613
1268.86	0.339775
1270.05	0.333006
1271.23	0.330622
1272.42	0.329591
1273.6	0.324863
1274.79	0.332066
1275.97	0.338293
1277.16	0.337995
1278.34	0.333193
1279.53	0.34239
1280.71	0.341039
1281.9	0.343905
1283.08	0.35681
1284.27	0.364677
1285.45	0.366617
1286.64	0.364847
1287.82	0.360144
1289.01	0.356472
1290.19	0.353471
1291.38	0.345569
1292.56	0.329916
1293.75	0.323182
1294.93	0.319397
1296.12	0.308571
1297.3	0.307243
1298.49	0.300529
1299.67	0.28365
1300.86	0.267564
1302.04	0.262491
1303.23	0.260462
1304.41	0.26378
1305.6	0.257342
1306.78	0.257413
1307.97	0.259125
1309.15	0.264431
1310.34	0.281081
1311.52	0.284357
1312.71	0.289874
1313.89	0.298017
1315.08	0.30487
1316.26	0.31297
1317.45	0.318583
1318.63	0.326548
1319.82	0.333157
1321	0.334463
1322.19	0.340992
1323.37	0.353143
1324.56	0.367269
1325.74	0.374913
1326.93	0.369985
1328.11	0.367917
1329.3	0.375481
1330.48	0.375737
1331.67	0.373187
1332.85	0.379631
1334.04	0.378703
1335.22	0.378598
1336.41	0.372062
1337.59	0.369656
1338.78	0.370774
1339.96	0.370316
1341.15	0.365011
1342.33	0.35625
1343.52	0.348152
1344.7	0.346233
1345.89	0.336306
1347.07	0.327095
1348.26	0.321749
1349.44	0.315452
1350.63	0.313623
1351.81	0.315052
1353	0.309979
1354.18	0.309836
1355.37	0.308393
1356.55	0.303297
1357.74	0.296837
1358.92	0.291757
1360.11	0.308142
1361.29	0.304763
1362.48	0.31808
1363.66	0.323941
1364.85	0.326441
1366.03	0.326738
1367.22	0.328734
1368.4	0.331812
1369.59	0.333271
1370.77	0.334269
1371.96	0.333893
1373.14	0.333579
1374.33	0.333438
1375.51	0.339677
1376.7	0.337114
1377.88	0.332495
1379.07	0.328319
1380.25	0.325295
1381.44	0.325539
1382.62	0.326729
1383.81	0.322332
1384.99	0.312106
1386.18	0.315426
1387.36	0.323563
1388.55	0.329445
1389.73	0.331289
1390.92	0.331189
1392.1	0.330444
1393.29	0.331651
1394.47	0.336662
1395.66	0.341004
1396.84	0.346539
1398.03	0.352037
1399.21	0.35495
1400.4	0.362468
1401.58	0.374473
1402.77	0.370131
1403.95	0.367151
1405.14	0.364327
1406.32	0.368642
1407.51	0.373892
1408.69	0.379308
1409.88	0.377093
1411.06	0.38322
1412.25	0.389015
1413.43	0.390314
1414.62	0.394403
1415.8	0.39606
1416.99	0.395604
1418.17	0.394359
1419.36	0.398832
1420.54	0.407561
1421.73	0.414233
1422.91	0.41669
1424.1	0.420789
1425.28	0.428488
1426.47	0.432411
1427.65	0.435859
1428.84	0.433074
1430.02	0.434389
1431.21	0.43596
1432.39	0.44175
1433.58	0.444171
1434.76	0.448529
1435.95	0.456656
1437.13	0.461015
1438.32	0.465099
1439.5	0.471307
1440.69	0.48381
1441.87	0.49184
1443.06	0.500202
1444.24	0.509713
1445.43	0.52482
1446.61	0.541273
1447.8	0.55549
1448.98	0.570112
1450.17	0.589503
1451.35	0.605413
1452.54	0.627911
1453.72	0.64878
1454.91	0.669964
1456.09	0.693059
1457.28	0.710501
1458.46	0.727743
1459.65	0.74513
1460.83	0.763142
1462.02	0.792415
1463.2	0.815829
1464.39	0.836831
1465.57	0.853564
1466.76	0.876994
1467.94	0.895883
1469.13	0.90817
1470.31	0.920919
1471.5	0.929222
1472.68	0.93383
1473.87	0.937961
1475.05	0.938688
1476.24	0.939445
1477.42	0.939984
1478.61	0.927387
1479.79	0.912115
1480.98	0.899146
1482.16	0.877539
1483.35	0.854018
1484.53	0.836929
1485.72	0.811243
1486.9	0.783393
1488.09	0.762676
1489.27	0.741401
1490.46	0.711637
1491.64	0.683344
1492.83	0.661809
1494.01	0.633082
1495.2	0.605339
1496.38	0.580941
1497.57	0.557776
1498.75	0.544039
1499.94	0.525916
1501.12	0.506371
1502.31	0.491759
1503.49	0.476561
1504.68	0.461081
1505.86	0.447815
1507.05	0.438844
1508.23	0.433181
1509.42	0.437292
1510.6	0.430657
1511.79	0.427454
1512.97	0.426445
1514.16	0.424262
1515.34	0.425861
1516.53	0.422639
1517.71	0.418565
1518.9	0.417835
1520.08	0.423306
1521.27	0.421721
1522.45	0.41769
1523.64	0.419512
1524.82	0.415913
1526.01	0.403147
1527.19	0.395451
1528.38	0.38569
1529.56	0.377232
1530.75	0.369927
1531.93	0.355972
1533.12	0.353389
1534.3	0.348093
1535.49	0.340595
1536.67	0.333097
1537.86	0.321801
1539.04	0.317143
1540.23	0.313038
1541.41	0.306439
1542.6	0.301661
1543.78	0.299998
1544.97	0.299256
1546.15	0.294618
1547.34	0.291355
1548.52	0.288204
1549.71	0.277383
1550.89	0.275761
1552.08	0.265372
1553.26	0.253353
1554.45	0.250975
1555.63	0.245073
1556.82	0.239794
1558	0.238822
1559.19	0.23781
1560.37	0.234487
1561.56	0.22612
1562.74	0.223373
1563.93	0.214866
1565.11	0.209774
1566.3	0.204626
1567.48	0.197092
1568.67	0.195882
1569.85	0.192864
1571.04	0.188344
1572.22	0.183564
1573.41	0.177117
1574.59	0.168976
1575.78	0.160895
1576.96	0.158351
1578.15	0.155125
1579.33	0.151542
1580.52	0.147395
1581.7	0.144942
1582.89	0.142283
1584.07	0.138612
1585.26	0.135758
1586.44	0.130389
1587.63	0.130026
1588.81	0.124183
1590	0.1197
1591.18	0.11473
1592.37	0.112722
1593.55	0.108142
1594.74	0.101897
1595.92	0.0988579
1597.11	0.0966291
1598.29	0.093595
1599.48	0.0878475
1600.66	0.084296
1601.85	0.0883885
1603.03	0.0908428
1604.22	0.0851873
1605.4	0.0822308
1606.59	0.080979
1607.77	0.0793672
1608.96	0.0784989
1610.14	0.0779174
1611.33	0.0729045
1612.51	0.0718902
1613.7	0.0701366
1614.88	0.069332
1616.07	0.0686005
1617.25	0.0643954
1618.44	0.0565317
1619.62	0.0498566
1620.81	0.045996
1621.99	0.0405771
1623.18	0.0371582
1624.36	0.030996
1625.55	0.0229648
1626.73	0.0215787
1627.92	0.02029
1629.1	0.0164945
1630.29	0.00932445
1631.47	0.00412403
1632.66	0.00443338
1633.84	0.00905193
1635.03	0.00569518
1636.21	0.00648963
1637.4	0.0114462
1638.58	0.0150065
1639.77	0.0224507
1640.95	0.023616
1642.14	0.0278163
1643.32	0.0262598
1644.51	0.027977
1645.69	0.0305284
1646.88	0.0322454
1648.06	0.0347382
1649.25	0.03625
1650.43	0.0369849
1651.62	0.0461263
1652.8	0.0471319
1653.99	0.0476917
1655.17	0.0517498
1656.36	0.0566376
1657.54	0.0618229
1658.73	0.0683205
1659.91	0.0740846
1661.1	0.0820283
1662.28	0.0931802
1663.47	0.106056
1664.65	0.109559
1665.84	0.112431
1667.02	0.116962
1668.21	0.119286
1669.39	0.128989
1670.58	0.128978
1671.76	0.130487
1672.95	0.13453
1674.13	0.136874
1675.32	0.142372
1676.5	0.144734
1677.69	0.144898
1678.87	0.14278
1680.06	0.138784
1681.24	0.141761
1682.43	0.141826
1683.61	0.148702
1684.8	0.148139
1685.98	0.148076
1687.17	0.152231
1688.35	0.150701
1689.54	0.147511
1690.72	0.148038
1691.91	0.149264
1693.09	0.14544
1694.28	0.140895
1695.46	0.143813
1696.65	0.140325
1697.83	0.133115
1699.02	0.130953
1700.2	0.128641
1701.39	0.125978
1702.57	0.118054
1703.76	0.113224
1704.94	0.113699
1706.13	0.111459
1707.31	0.103588
1708.5	0.105793
1709.68	0.104645
1710.87	0.100698
1712.05	0.100401
1713.24	0.104886
1714.42	0.107076
1715.61	0.104093
1716.79	0.0957198
1717.98	0.099254
1719.16	0.100901
1720.35	0.097672
1721.53	0.0927371
1722.72	0.0950104
1723.9	0.0951984
1725.09	0.0943837
1726.27	0.0935765
1727.46	0.0948213
1728.64	0.0967381
1729.83	0.0939138
1731.01	0.0976974
1732.2	0.102067
1733.38	0.101572
1734.57	0.102573
1735.75	0.10532
1736.94	0.110963
1738.12	0.111145
1739.31	0.10661
1740.49	0.107032
1741.68	0.108974
1742.86	0.107287
1744.05	0.100392
1745.23	0.0959364
1746.42	0.0914308
1747.6	0.0832897
1748.79	0.0823889
1749.97	0.0836764
1751.16	0.0814154
1752.34	0.0747337
1753.53	0.0718671
1754.71	0.0678564
1755.9	0.0642987
1757.08	0.0612721
1758.27	0.0623606
1759.45	0.0657935
1760.64	0.0681437
1761.82	0.070499
1763.01	0.0730441
1764.19	0.0778614
1765.38	0.0752876
1766.56	0.0719829
1767.74	0.072804
1768.93	0.0716987
1770.12	0.0722325
1771.3	0.0709632
1772.49	0.0705979
1773.67	0.0687272
1774.85	0.0663093
1776.04	0.0618383
1777.23	0.0555741
1778.41	0.0488675
1779.6	0.0427548
1780.78	0.0367213
1781.97	0.033149
1783.15	0.0299237
1784.34	0.0280364
1785.52	0.0255074
1786.7	0.0281872
1787.89	0.0199372
1789.08	0.0178448
1790.26	0.0157891
1791.45	0.0125982
1792.63	0.0116731
1793.81	0.0107399
1795	0.0106918
