405	0.240234
406.185	0.247754
407.37	0.252954
408.555	0.254754
409.74	0.253546
410.925	0.250428
412.11	0.245771
413.295	0.239543
414.48	0.234922
415.665	0.228023
416.85	0.218708
418.035	0.208635
419.22	0.196803
420.405	0.183762
421.59	0.170003
422.775	0.155152
423.96	0.14042
425.145	0.123808
426.33	0.108065
427.515	0.0940915
428.7	0.0816806
429.885	0.0698311
431.07	0.0576736
432.255	0.0454069
433.44	0.0343965
434.625	0.0244419
435.81	0.0176453
436.995	0.0102712
438.18	0.00374248
439.365	-0.000905648
440.55	-0.0044739
441.735	-0.00734267
442.92	-0.00812215
444.105	-0.00829353
445.29	-0.00815827
446.475	-0.00569801
447.66	-0.00232303
448.845	0.00207735
450.03	0.00770268
451.215	0.0146549
452.4	0.0234079
453.585	0.0349263
454.77	0.0474616
455.955	0.0634491
457.14	0.080124
458.325	0.0981265
459.51	0.116773
460.695	0.136713
461.88	0.158873
463.065	0.182978
464.25	0.208991
465.435	0.235505
466.62	0.261552
467.805	0.288494
468.99	0.314384
470.175	0.340387
471.36	0.365536
472.545	0.388016
473.73	0.409215
474.915	0.429441
476.1	0.445179
477.285	0.458134
478.47	0.467549
479.655	0.475443
480.84	0.480715
482.025	0.481616
483.21	0.478063
484.395	0.471282
485.58	0.461879
486.765	0.449302
487.95	0.435299
489.135	0.419151
490.32	0.399182
491.505	0.378475
492.69	0.357647
493.875	0.334891
495.06	0.311312
496.245	0.286084
497.43	0.264215
498.615	0.242248
499.8	0.220623
500.985	0.200278
502.17	0.180598
503.355	0.16238
504.54	0.146537
505.725	0.131659
506.91	0.117456
508.095	0.103962
509.28	0.0925992
510.465	0.0837206
511.65	0.0755967
512.835	0.0681381
514.02	0.0616685
515.205	0.0565064
516.39	0.0523323
517.575	0.047303
518.76	0.0448765
519.945	0.0421909
521.13	0.0408621
522.315	0.0413723
523.5	0.0409526
524.685	0.0406836
525.87	0.0417952
527.055	0.0433434
528.24	0.044709
529.425	0.0458611
530.61	0.0474361
531.794	0.0500186
532.98	0.0520731
534.165	0.0534798
535.35	0.055565
536.535	0.0586145
537.719	0.0617924
538.905	0.0642673
540.09	0.0656039
541.274	0.0660373
542.46	0.0663207
543.644	0.0670431
544.829	0.0662359
546.015	0.0660807
547.199	0.0653547
548.384	0.0637439
549.57	0.062345
550.754	0.0607353
551.94	0.0575656
553.124	0.0553089
554.309	0.0526346
555.495	0.05086
556.679	0.0474929
557.864	0.0436042
559.049	0.0405753
560.234	0.0383832
561.419	0.0358484
562.604	0.0322272
563.789	0.0286507
564.974	0.0266791
566.159	0.0238009
567.344	0.0214883
568.529	0.0199866
569.714	0.0181963
570.899	0.016336
572.084	0.0151695
573.269	0.0145512
574.454	0.0130949
575.639	0.00993008
576.824	0.00852879
578.009	0.00769701
579.194	0.00558505
580.379	0.00350962
581.564	0.00193663
582.749	0.00117756
583.934	0.000508917
585.119	-0.00107265
586.304	-0.00289069
587.489	-0.0030655
588.674	-0.00380685
589.859	-0.00434271
591.044	-0.0047742
592.229	-0.00555201
593.414	-0.00585724
594.599	-0.00453368
595.784	-0.00302557
596.969	-0.00249388
598.154	-0.0018261
599.339	-9.91775e-005
600.524	0.000500435
601.709	0.00127429
602.894	0.00195136
604.079	0.00280941
605.264	0.00360455
606.449	0.00406701
607.634	0.0048482
608.819	0.00532945
610.004	0.00612268
611.189	0.00745051
612.374	0.00780331
613.559	0.00824793
614.744	0.00716076
615.929	0.00813319
617.114	0.00852281
618.299	0.00962114
619.484	0.0112937
620.669	0.0130517
621.854	0.0145018
623.039	0.0160732
624.224	0.0181547
625.409	0.0202158
626.594	0.0216987
627.779	0.0224025
628.964	0.0250444
630.149	0.0270884
631.334	0.0296092
632.519	0.0333366
633.704	0.036149
634.889	0.0383107
636.074	0.0408574
637.259	0.0434106
638.444	0.0455704
639.629	0.0488989
640.814	0.0539049
641.999	0.0591171
643.184	0.0643105
644.369	0.0705619
645.554	0.076414
646.739	0.0827867
647.924	0.088447
649.109	0.0945539
650.294	0.101725
651.479	0.109015
652.664	0.116747
653.849	0.126097
655.034	0.134071
656.219	0.142316
657.404	0.151797
658.589	0.161299
659.774	0.168934
660.959	0.176415
662.144	0.183462
663.329	0.190273
664.514	0.196473
665.699	0.201375
666.884	0.205417
668.069	0.208813
669.254	0.210137
670.439	0.210447
671.624	0.209783
672.809	0.207635
673.994	0.204672
675.179	0.20165
676.364	0.197454
677.549	0.19124
678.734	0.183981
679.919	0.176256
681.104	0.167956
682.289	0.159672
683.474	0.150025
684.659	0.140969
685.844	0.131803
687.029	0.123963
688.214	0.115284
689.399	0.108734
690.584	0.101623
691.769	0.0946815
692.954	0.0884005
694.139	0.0828816
695.324	0.0771085
696.509	0.0708909
697.694	0.0674591
698.879	0.0646934
700.064	0.0626667
701.249	0.0598534
702.434	0.0576398
703.619	0.0561564
704.804	0.0557024
705.989	0.0551478
707.174	0.0553847
708.359	0.0548816
709.544	0.0541806
710.729	0.0542844
711.914	0.0545529
713.099	0.0554921
714.284	0.0559583
715.469	0.0583496
716.654	0.0581101
717.839	0.0585068
719.024	0.0584479
720.209	0.0581532
721.394	0.0585433
722.579	0.0592699
723.764	0.0602485
724.949	0.0609144
726.134	0.0613293
727.319	0.0620114
728.504	0.062796
729.689	0.0633327
730.874	0.0631544
732.059	0.0638153
733.244	0.0642968
734.429	0.0649752
735.614	0.0667131
736.799	0.0676685
737.984	0.0677521
739.169	0.0685827
740.354	0.0690502
741.539	0.0689262
742.724	0.0685194
743.909	0.0683161
745.094	0.0687112
746.279	0.0687625
747.464	0.0686696
748.649	0.0685994
749.834	0.0699596
751.019	0.0694516
752.204	0.0694603
753.389	0.0699629
754.574	0.0697524
755.759	0.0701788
756.944	0.0718551
758.129	0.0722956
759.314	0.0732782
760.499	0.0756556
761.684	0.0777997
762.869	0.0798361
764.054	0.0815293
765.239	0.0832405
766.424	0.0851121
767.609	0.0879638
768.794	0.0898606
769.979	0.0929671
771.164	0.0952104
772.349	0.0972376
773.534	0.0995678
774.719	0.101544
775.904	0.102646
777.089	0.104298
778.274	0.10522
779.459	0.105528
780.644	0.10689
781.829	0.108117
783.014	0.110066
784.199	0.111174
785.384	0.113219
786.569	0.114301
787.754	0.117541
788.939	0.120791
790.124	0.125503
791.309	0.130612
792.494	0.13736
793.679	0.145585
794.864	0.156725
796.049	0.169942
797.234	0.18441
798.419	0.200173
799.604	0.21689
800.789	0.234634
801.974	0.254293
803.159	0.276196
804.344	0.300032
805.529	0.322906
806.714	0.345602
807.899	0.369009
809.084	0.390623
810.269	0.410866
811.453	0.429503
812.639	0.446608
813.824	0.460622
815.008	0.473662
816.194	0.486558
817.379	0.497964
818.563	0.507589
819.749	0.516165
820.933	0.52446
822.118	0.5326
823.304	0.53964
824.488	0.548296
825.674	0.558028
826.858	0.570489
828.043	0.585576
829.229	0.603756
830.413	0.625383
831.598	0.650165
832.784	0.677432
833.968	0.703825
835.153	0.731933
836.338	0.760456
837.523	0.789829
838.708	0.819156
839.893	0.84586
841.078	0.870626
842.263	0.893715
843.448	0.913487
844.633	0.930054
845.818	0.940152
847.003	0.946696
848.188	0.948225
849.373	0.944347
850.558	0.936989
851.743	0.923808
852.928	0.908564
854.113	0.888261
855.298	0.865945
856.483	0.841176
857.668	0.812393
858.853	0.782284
860.038	0.750793
861.223	0.718428
862.408	0.684704
863.593	0.651256
864.778	0.618113
865.963	0.58346
867.148	0.54816
868.333	0.512827
869.518	0.478376
870.703	0.445452
871.888	0.414532
873.073	0.383699
874.258	0.353332
875.443	0.325548
876.628	0.300493
877.813	0.277726
878.998	0.25633
880.183	0.23784
881.368	0.221725
882.553	0.20615
883.738	0.19486
884.923	0.187424
886.108	0.182784
887.293	0.17962
888.478	0.178684
889.663	0.179551
890.848	0.182242
892.033	0.187369
893.218	0.19343
894.403	0.200598
895.588	0.209648
896.773	0.219293
897.958	0.229121
899.143	0.239298
900.328	0.249622
901.513	0.262627
902.698	0.272762
903.883	0.284709
905.068	0.294654
906.253	0.306425
907.438	0.316568
908.623	0.325287
909.808	0.333279
910.993	0.340476
912.178	0.345521
913.363	0.348389
914.548	0.349549
915.733	0.349025
916.918	0.347328
918.103	0.344071
919.288	0.337688
920.473	0.328659
921.658	0.317553
922.843	0.304855
924.028	0.291378
925.213	0.274388
926.398	0.25686
927.583	0.238104
928.768	0.217177
929.953	0.19757
931.138	0.177673
932.323	0.158726
933.508	0.139073
934.693	0.119228
935.878	0.100509
937.063	0.0831191
938.248	0.0670851
939.433	0.05194
940.618	0.0388346
941.803	0.0266481
942.988	0.0162089
944.173	0.00750148
945.358	0.000814507
946.543	-0.00405283
947.728	-0.00730368
948.913	-0.00862482
950.098	-0.010004
951.283	-0.0105657
952.468	-0.00859115
953.653	-0.00632628
954.838	-0.0034697
956.023	0.00171472
957.208	0.0076469
958.393	0.0141652
959.578	0.0206637
960.763	0.0268571
961.948	0.0335108
963.133	0.0400605
964.318	0.0469263
965.503	0.0540518
966.688	0.0573924
967.873	0.0613661
969.058	0.0653428
970.243	0.06834
971.428	0.0691446
972.613	0.07059
973.798	0.0691544
974.983	0.0670019
976.168	0.0649382
977.353	0.0606269
978.538	0.056402
979.723	0.0521172
980.908	0.0470789
982.093	0.0421887
983.278	0.0373145
984.463	0.0343825
985.648	0.0315664
986.833	0.0293381
988.018	0.0268613
989.203	0.0251174
990.388	0.024747
991.573	0.0251841
992.758	0.0264131
993.943	0.0272894
995.128	0.0287195
996.313	0.0318441
997.498	0.0351856
998.683	0.0381372
999.868	0.0411998
1001.05	0.0443697
1002.24	0.0469693
1003.42	0.0493713
1004.61	0.0529388
1005.79	0.0581478
1006.98	0.0648972
1008.16	0.0707556
1009.35	0.0772749
1010.53	0.0855894
1011.72	0.0952438
1012.9	0.107056
1014.09	0.119561
1015.27	0.134035
1016.46	0.150286
1017.64	0.169142
1018.83	0.189993
1020.01	0.213176
1021.2	0.239528
1022.38	0.264751
1023.57	0.293172
1024.75	0.321009
1025.94	0.353258
1027.12	0.385937
1028.31	0.41709
1029.49	0.450368
1030.68	0.483416
1031.86	0.516984
1033.05	0.550058
1034.23	0.581978
1035.42	0.613352
1036.6	0.643766
1037.79	0.671096
1038.97	0.695965
1040.16	0.720599
1041.34	0.740735
1042.53	0.75861
1043.71	0.773077
1044.9	0.785138
1046.08	0.79409
1047.27	0.800458
1048.45	0.805756
1049.64	0.80772
1050.82	0.805981
1052.01	0.801727
1053.19	0.796188
1054.38	0.788496
1055.56	0.779451
1056.75	0.768597
1057.93	0.756041
1059.12	0.742621
1060.3	0.728461
1061.49	0.71475
1062.67	0.701543
1063.86	0.689119
1065.04	0.676671
1066.23	0.661498
1067.41	0.646005
1068.6	0.632085
1069.78	0.61909
1070.97	0.607102
1072.15	0.595223
1073.34	0.584351
1074.52	0.573943
1075.71	0.564986
1076.89	0.55713
1078.08	0.550901
1079.26	0.542999
1080.45	0.534803
1081.63	0.528108
1082.82	0.522017
1084	0.51696
1085.19	0.514393
1086.37	0.511784
1087.56	0.509064
1088.74	0.506942
1089.93	0.504546
1091.11	0.502296
1092.3	0.501975
1093.48	0.501934
1094.67	0.501104
1095.85	0.500814
1097.04	0.502147
1098.22	0.503263
1099.41	0.504252
1100.59	0.504731
1101.78	0.505234
1102.96	0.503752
1104.15	0.500849
1105.33	0.496928
1106.52	0.490445
1107.7	0.4835
1108.89	0.474476
1110.07	0.46465
1111.26	0.453092
1112.44	0.440096
1113.63	0.423659
1114.81	0.40604
1116	0.3871
1117.18	0.365774
1118.37	0.343849
1119.55	0.320003
1120.74	0.296032
1121.92	0.272481
1123.11	0.250737
1124.29	0.23066
1125.48	0.20962
1126.66	0.189454
1127.85	0.168286
1129.03	0.148849
1130.22	0.131876
1131.4	0.117986
1132.59	0.103792
1133.77	0.0908671
1134.96	0.0789719
1136.14	0.0687688
1137.33	0.0600887
1138.51	0.0530007
1139.7	0.0464057
1140.88	0.0410135
1142.07	0.0352091
1143.25	0.0308312
1144.44	0.026635
1145.62	0.0235022
1146.81	0.0193945
1147.99	0.0158744
1149.18	0.0123675
1150.36	0.00995424
1151.55	0.00824745
1152.73	0.00726321
1153.92	0.0044973
1155.1	0.00157025
1156.29	-0.000193077
1157.47	-0.00106339
1158.66	-0.00299678
1159.84	-0.00435311
1161.03	-0.0052468
1162.21	-0.00581214
1163.4	-0.00507804
1164.58	-0.00310289
1165.77	-0.00242525
1166.95	-0.0017625
1168.14	-0.000699354
1169.32	0.000805911
1170.51	0.00211611
1171.69	0.00562945
1172.88	0.0109864
1174.06	0.0157788
1175.25	0.0207406
1176.43	0.0266217
1177.62	0.0331601
1178.8	0.0405324
1179.99	0.0490029
1181.17	0.0577549
1182.36	0.0672288
1183.54	0.0777509
1184.73	0.0883117
1185.91	0.0986553
1187.1	0.111091
1188.28	0.124226
1189.47	0.136459
1190.65	0.148763
1191.84	0.161474
1193.02	0.174887
1194.21	0.187427
1195.39	0.201045
1196.58	0.216436
1197.76	0.231182
1198.95	0.244439
1200.13	0.257368
1201.32	0.271666
1202.5	0.287644
1203.69	0.303574
1204.87	0.317002
1206.06	0.333001
1207.24	0.348345
1208.43	0.363367
1209.61	0.379042
1210.8	0.395263
1211.98	0.413289
1213.17	0.428623
1214.35	0.443028
1215.54	0.457907
1216.72	0.476814
1217.91	0.493373
1219.09	0.509644
1220.28	0.526754
1221.46	0.543022
1222.65	0.561869
1223.83	0.578643
1225.02	0.596593
1226.2	0.613617
1227.39	0.631547
1228.57	0.648698
1229.76	0.665257
1230.94	0.682427
1232.13	0.699679
1233.31	0.714202
1234.5	0.727941
1235.68	0.743452
1236.87	0.756337
1238.05	0.768646
1239.24	0.780196
1240.42	0.789421
1241.61	0.799377
1242.79	0.809586
1243.98	0.81756
1245.16	0.821976
1246.35	0.826222
1247.53	0.831115
1248.72	0.83424
1249.9	0.836524
1251.09	0.838138
1252.27	0.838754
1253.46	0.839073
1254.64	0.836874
1255.83	0.833446
1257.01	0.830346
1258.2	0.826718
1259.38	0.821459
1260.57	0.814256
1261.75	0.808848
1262.94	0.804535
1264.12	0.79465
1265.31	0.785286
1266.49	0.775636
1267.68	0.767233
1268.86	0.755816
1270.05	0.743073
1271.23	0.730007
1272.42	0.718213
1273.6	0.706311
1274.79	0.69181
1275.97	0.67803
1277.16	0.663734
1278.34	0.649988
1279.53	0.635024
1280.71	0.619751
1281.9	0.604979
1283.08	0.590224
1284.27	0.573748
1285.45	0.55973
1286.64	0.547771
1287.82	0.53517
1289.01	0.522957
1290.19	0.510299
1291.38	0.499272
1292.56	0.488901
1293.75	0.479192
1294.93	0.469988
1296.12	0.461102
1297.3	0.452091
1298.49	0.446911
1299.67	0.440428
1300.86	0.437033
1302.04	0.432421
1303.23	0.424761
1304.41	0.4182
1305.6	0.411391
1306.78	0.405855
1307.97	0.402412
1309.15	0.39841
1310.34	0.393123
1311.52	0.385697
1312.71	0.379863
1313.89	0.373944
1315.08	0.36742
1316.26	0.36051
1317.45	0.352883
1318.63	0.345579
1319.82	0.339088
1321	0.332806
1322.19	0.328242
1323.37	0.323454
1324.56	0.317384
1325.74	0.310418
1326.93	0.304179
1328.11	0.299972
1329.3	0.294807
1330.48	0.289704
1331.67	0.286334
1332.85	0.281587
1334.04	0.278284
1335.22	0.274485
1336.41	0.270151
1337.59	0.267391
1338.78	0.263771
1339.96	0.259655
1341.15	0.256122
1342.33	0.25316
1343.52	0.250844
1344.7	0.24778
1345.89	0.246191
1347.07	0.243997
1348.26	0.241188
1349.44	0.239157
1350.63	0.236049
1351.81	0.23334
1353	0.230227
1354.18	0.227999
1355.37	0.22686
1356.55	0.225912
1357.74	0.224865
1358.92	0.222399
1360.11	0.220127
1361.29	0.217179
1362.48	0.213591
1363.66	0.210461
1364.85	0.208757
1366.03	0.206776
1367.22	0.204885
1368.4	0.202927
1369.59	0.202053
1370.77	0.20061
1371.96	0.197782
1373.14	0.193887
1374.33	0.190628
1375.51	0.188706
1376.7	0.18491
1377.88	0.183353
1379.07	0.182555
1380.25	0.182183
1381.44	0.179622
1382.62	0.177006
1383.81	0.17381
1384.99	0.173507
1386.18	0.170709
1387.36	0.169953
1388.55	0.167479
1389.73	0.165992
1390.92	0.164962
1392.1	0.164374
1393.29	0.164662
1394.47	0.164395
1395.66	0.163756
1396.84	0.163787
1398.03	0.164869
1399.21	0.165783
1400.4	0.166621
1401.58	0.165412
1402.77	0.166192
1403.95	0.165876
1405.14	0.168484
1406.32	0.170023
1407.51	0.171076
1408.69	0.171111
1409.88	0.172152
1411.06	0.17266
1412.25	0.172741
1413.43	0.171622
1414.62	0.170647
1415.8	0.170271
1416.99	0.170518
1418.17	0.172534
1419.36	0.173409
1420.54	0.174343
1421.73	0.175131
1422.91	0.176611
1424.1	0.17773
1425.28	0.181068
1426.47	0.18291
1427.65	0.187146
1428.84	0.192572
1430.02	0.198359
1431.21	0.206266
1432.39	0.214604
1433.58	0.225039
1434.76	0.235605
1435.95	0.247285
1437.13	0.26141
1438.32	0.277135
1439.5	0.296236
1440.69	0.31699
1441.87	0.33776
1443.06	0.362002
1444.24	0.386149
1445.43	0.410951
1446.61	0.435519
1447.8	0.458387
1448.98	0.484059
1450.17	0.508526
1451.35	0.531848
1452.54	0.553176
1453.72	0.572352
1454.91	0.589167
1456.09	0.602567
1457.28	0.61262
1458.46	0.619111
1459.65	0.621287
1460.83	0.620273
1462.02	0.614682
1463.2	0.606565
1464.39	0.595995
1465.57	0.579038
1466.76	0.559473
1467.94	0.536988
1469.13	0.512275
1470.31	0.486087
1471.5	0.457951
1472.68	0.428133
1473.87	0.398598
1475.05	0.369913
1476.24	0.341224
1477.42	0.313935
1478.61	0.286636
1479.79	0.261605
1480.98	0.239589
1482.16	0.219631
1483.35	0.201811
1484.53	0.185426
1485.72	0.171646
1486.9	0.158982
1488.09	0.147945
1489.27	0.137916
1490.46	0.130571
1491.64	0.124786
1492.83	0.119356
1494.01	0.115506
1495.2	0.113749
1496.38	0.113698
1497.57	0.112286
1498.75	0.111174
1499.94	0.10932
1501.12	0.108713
1502.31	0.108229
1503.49	0.109169
1504.68	0.111041
1505.86	0.112657
1507.05	0.112564
1508.23	0.113418
1509.42	0.11392
1510.6	0.114146
1511.79	0.114667
1512.97	0.112873
1514.16	0.113048
1515.34	0.113158
1516.53	0.113578
1517.71	0.115266
1518.9	0.117647
1520.08	0.117938
1521.27	0.11609
1522.45	0.115666
1523.64	0.11697
1524.82	0.116676
1526.01	0.115453
1527.19	0.114037
1528.38	0.113506
1529.56	0.113468
1530.75	0.112054
1531.93	0.111366
1533.12	0.1101
1534.3	0.107341
1535.49	0.103939
1536.67	0.103174
1537.86	0.103343
1539.04	0.102246
1540.23	0.0994923
1541.41	0.0985233
1542.6	0.0976248
1543.78	0.0968455
1544.97	0.0951873
1546.15	0.0935159
1547.34	0.0921877
1548.52	0.0911067
1549.71	0.090461
1550.89	0.0881425
1552.08	0.0881039
1553.26	0.0853911
1554.45	0.0835303
1555.63	0.0821792
1556.82	0.0809503
1558	0.0798078
1559.19	0.0780848
1560.37	0.076309
1561.56	0.0743233
1562.74	0.0727621
1563.93	0.0707155
1565.11	0.0684048
1566.3	0.0663213
1567.48	0.0653119
1568.67	0.0627302
1569.85	0.061128
1571.04	0.0595571
1572.22	0.0586846
1573.41	0.0573383
1574.59	0.0551637
1575.78	0.0537723
1576.96	0.0527061
1578.15	0.0520651
1579.33	0.0507084
1580.52	0.0497667
1581.7	0.0487181
1582.89	0.0481368
1584.07	0.0474684
1585.26	0.0464211
1586.44	0.0457107
1587.63	0.0444409
1588.81	0.0427887
1590	0.0412857
1591.18	0.0400827
1592.37	0.0391753
1593.55	0.0370169
1594.74	0.0354804
1595.92	0.0344733
1597.11	0.0332181
1598.29	0.0310909
1599.48	0.0291886
1600.66	0.0271542
1601.85	0.0261674
1603.03	0.0244554
1604.22	0.0226406
1605.4	0.0200588
1606.59	0.01848
1607.77	0.0172389
1608.96	0.0165682
1610.14	0.0154844
1611.33	0.0142982
1612.51	0.0125564
1613.7	0.0103642
1614.88	0.00894554
1616.07	0.00790651
1617.25	0.00714787
1618.44	0.00564732
1619.62	0.00439252
1620.81	0.00368928
1621.99	0.00274956
1623.18	0.00194205
1624.36	0.00016249
1625.55	-0.000435646
1626.73	-0.0013326
1627.92	-0.00266293
1629.1	-0.00317293
1630.29	-0.00319552
1631.47	-0.00376204
1632.66	-0.00331707
1633.84	-0.00343651
1635.03	-0.00321964
1636.21	-0.0028612
1637.4	-0.00236629
1638.58	-0.00183132
1639.77	-0.00131331
1640.95	-0.00043858
1642.14	0.00116453
1643.32	0.00258548
1644.51	0.00313803
1645.69	0.00372312
1646.88	0.00528793
1648.06	0.00671316
1649.25	0.00890335
1650.43	0.00990626
1651.62	0.0112086
1652.8	0.0136638
1653.99	0.0161092
1655.17	0.0179538
1656.36	0.0196123
1657.54	0.0211551
1658.73	0.0220945
1659.91	0.0239426
1661.1	0.0254741
1662.28	0.0270608
1663.47	0.0269156
1664.65	0.0274758
1665.84	0.027868
1667.02	0.0289033
1668.21	0.0301306
1669.39	0.0304432
1670.58	0.0301813
1671.76	0.0310699
1672.95	0.0327354
1674.13	0.03291
1675.32	0.0337295
1676.5	0.0337942
1677.69	0.0350732
1678.87	0.0372617
1680.06	0.0387026
1681.24	0.0387434
1682.43	0.0391391
1683.61	0.0391258
1684.8	0.0388564
1685.98	0.0397328
1687.17	0.0409973
1688.35	0.0413471
1689.54	0.0413488
1690.72	0.0420506
1691.91	0.0426357
1693.09	0.0437333
1694.28	0.0443387
1695.46	0.0440289
1696.65	0.0437882
1697.83	0.0448476
1699.02	0.0457555
1700.2	0.0466869
1701.39	0.047397
1702.57	0.0482127
1703.76	0.0491096
1704.94	0.0493385
1706.13	0.0495227
1707.31	0.0487271
1708.5	0.0501617
1709.68	0.0505227
1710.87	0.0503241
1712.05	0.0507613
1713.24	0.0510375
1714.42	0.0512356
1715.61	0.0518112
1716.79	0.0508815
1717.98	0.0507331
1719.16	0.0500323
1720.35	0.0496639
1721.53	0.0492599
1722.72	0.0488578
1723.9	0.0488675
1725.09	0.0481352
1726.27	0.047914
1727.46	0.0480155
1728.64	0.0479757
1729.83	0.0478529
1731.01	0.047429
1732.2	0.0473253
1733.38	0.0480665
1734.57	0.0476557
1735.75	0.0470786
1736.94	0.0467455
1738.12	0.0470138
1739.31	0.0469253
1740.49	0.0459796
1741.68	0.0455578
1742.86	0.0451742
1744.05	0.0446768
1745.23	0.0444608
1746.42	0.0437648
1747.6	0.0430722
1748.79	0.0422994
1749.97	0.0410034
1751.16	0.0399228
1752.34	0.0385068
1753.53	0.0375951
1754.71	0.0364564
1755.9	0.0354295
1757.08	0.0347054
1758.27	0.0330738
1759.45	0.0322818
1760.64	0.0313385
1761.82	0.0300868
1763.01	0.0290574
1764.19	0.0275123
1765.38	0.0254075
1766.56	0.0249786
1767.74	0.0252012
1768.93	0.024201
1770.12	0.0235626
1771.3	0.0226537
1772.49	0.0214552
1773.67	0.0201841
1774.85	0.0182124
1776.04	0.0155771
1777.23	0.0140639
1778.41	0.0131461
1779.6	0.0119372
1780.78	0.0113121
1781.97	0.0110509
1783.15	0.0099605
1784.34	0.00816763
1785.52	0.00600058
1786.7	0.00379406
1787.89	0.00253996
1789.08	0.00110775
1790.26	0.000131751
1791.45	-0.000652761
1792.63	-0.0018822
1793.81	-0.00398762
1795	-0.00609257
