405	0.238818
406.185	0.23272
407.37	0.22854
408.555	0.224046
409.74	0.218561
410.925	0.212011
412.11	0.204561
413.295	0.196528
414.48	0.188296
415.665	0.179164
416.85	0.168655
418.035	0.158432
419.22	0.147317
420.405	0.13579
421.59	0.124615
422.775	0.113847
423.96	0.104644
425.145	0.0950562
426.33	0.0828803
427.515	0.0724591
428.7	0.0624042
429.885	0.0531993
431.07	0.0444625
432.255	0.0355292
433.44	0.028823
434.625	0.0226335
435.81	0.0165483
436.995	0.0118277
438.18	0.00684383
439.365	0.00316558
440.55	0.000434166
441.735	-0.00303278
442.92	-0.00702073
444.105	-0.00942245
445.29	-0.0104278
446.475	-0.0105657
447.66	-0.00951828
448.845	-0.00769664
450.03	-0.00519404
451.215	-0.0013699
452.4	0.00404836
453.585	0.00964948
454.77	0.0168126
455.955	0.0256483
457.14	0.0355478
458.325	0.0456156
459.51	0.0553512
460.695	0.0660855
461.88	0.0792692
463.065	0.0938674
464.25	0.106108
465.435	0.119275
466.62	0.13375
467.805	0.146857
468.99	0.159314
470.175	0.171258
471.36	0.182594
472.545	0.193111
473.73	0.202333
474.915	0.210279
476.1	0.214927
477.285	0.21962
478.47	0.222234
479.655	0.22428
480.84	0.224528
482.025	0.222319
483.21	0.218877
484.395	0.214817
485.58	0.208014
486.765	0.199796
487.95	0.190075
489.135	0.179727
490.32	0.169148
491.505	0.157362
492.69	0.144451
493.875	0.131682
495.06	0.119773
496.245	0.109562
497.43	0.0972563
498.615	0.0856412
499.8	0.0745245
500.985	0.0653386
502.17	0.0559572
503.355	0.0462308
504.54	0.0381189
505.725	0.0315888
506.91	0.0247505
508.095	0.0187105
509.28	0.0140818
510.465	0.00963349
511.65	0.00739856
512.835	0.0050883
514.02	0.00280069
515.205	0.00103935
516.39	-0.00149331
517.575	-0.00293544
518.76	-0.00383909
519.945	-0.00359497
521.13	-0.00263208
522.315	-0.000867099
523.5	0.000997434
524.685	0.00221677
525.87	0.0031096
527.055	0.00452981
528.24	0.00642597
529.425	0.00846558
530.61	0.00983275
531.795	0.00998849
532.98	0.0117515
534.164	0.012151
535.35	0.0133729
536.535	0.0155818
537.719	0.0180101
538.905	0.0207866
540.09	0.0211329
541.274	0.0198654
542.46	0.0198636
543.644	0.0191102
544.829	0.0190883
546.015	0.0186394
547.199	0.0186953
548.385	0.0180151
549.569	0.0160491
550.754	0.0153188
551.94	0.014187
553.124	0.0125711
554.309	0.0111358
555.495	0.00955026
556.679	0.00795206
557.864	0.00601933
559.049	0.00503978
560.234	0.00424009
561.419	0.00229393
562.604	0.00026927
563.789	-0.00123499
564.974	-0.00259202
566.159	-0.00214874
567.344	-0.00433184
568.529	-0.00453897
569.714	-0.00433278
570.899	-0.00458899
572.084	-0.00493042
573.269	-0.00493788
574.454	-0.00464208
575.639	-0.00411279
576.824	-0.0036446
578.009	-0.00404954
579.194	-0.00457112
580.379	-0.0037332
581.564	-0.00165294
582.749	0.000504912
583.934	0.00169451
585.119	0.0020304
586.304	0.00286234
587.489	0.00497184
588.674	0.00571092
589.859	0.00625738
591.044	0.00919938
592.229	0.0105235
593.414	0.0124517
594.599	0.0133309
595.784	0.013562
596.969	0.0146903
598.154	0.0165006
599.339	0.0179112
600.524	0.0201509
601.709	0.0215425
602.894	0.0218611
604.079	0.022355
605.264	0.0232446
606.449	0.0247713
607.634	0.0265493
608.819	0.0282309
610.004	0.0295133
611.189	0.0306187
612.374	0.0321885
613.559	0.0339486
614.744	0.0360069
615.929	0.0381728
617.114	0.0397453
618.299	0.0425344
619.484	0.0440477
620.669	0.0453962
621.854	0.0472629
623.039	0.0499814
624.224	0.0528063
625.409	0.0547044
626.594	0.0574374
627.779	0.0591332
628.964	0.0605846
630.149	0.0629844
631.334	0.066646
632.519	0.0690921
633.704	0.071193
634.889	0.0735457
636.074	0.0759104
637.259	0.0781016
638.444	0.080404
639.629	0.083047
640.814	0.085782
641.999	0.0897271
643.184	0.0941636
644.369	0.0983615
645.554	0.100857
646.739	0.105467
647.924	0.110901
649.109	0.116213
650.294	0.121247
651.479	0.126178
652.664	0.131652
653.849	0.137647
655.034	0.143548
656.219	0.149009
657.404	0.153618
658.589	0.15867
659.774	0.163703
660.959	0.169402
662.144	0.174059
663.329	0.178684
664.514	0.183712
665.699	0.18734
666.884	0.189302
668.069	0.191629
669.254	0.191887
670.439	0.191495
671.624	0.190444
672.809	0.190497
673.994	0.189246
675.179	0.187727
676.364	0.186056
677.549	0.184015
678.734	0.18106
679.919	0.176867
681.104	0.172294
682.289	0.168481
683.474	0.164512
684.659	0.161413
685.844	0.158499
687.029	0.155137
688.214	0.153666
689.399	0.151647
690.584	0.150555
691.769	0.149501
692.954	0.147857
694.139	0.146615
695.324	0.145995
696.509	0.145504
697.694	0.146326
698.879	0.147696
700.064	0.148161
701.249	0.149938
702.434	0.150817
703.619	0.151741
704.804	0.152954
705.989	0.154197
707.174	0.155053
708.359	0.15598
709.544	0.156985
710.729	0.157434
711.914	0.15825
713.099	0.160715
714.284	0.161615
715.469	0.163339
716.654	0.164335
717.839	0.164804
719.024	0.165551
720.209	0.165427
721.394	0.16617
722.579	0.166974
723.764	0.167782
724.949	0.168589
726.134	0.169309
727.319	0.170363
728.504	0.171907
729.689	0.173225
730.874	0.174483
732.059	0.175449
733.244	0.177443
734.429	0.178817
735.614	0.179552
736.799	0.180924
737.984	0.183089
739.169	0.185176
740.354	0.186376
741.539	0.186899
742.724	0.187497
743.909	0.188021
745.094	0.188169
746.279	0.188911
747.464	0.189908
748.649	0.189702
749.834	0.19075
751.019	0.191506
752.204	0.190652
753.389	0.190861
754.574	0.190467
755.759	0.191313
756.944	0.192261
758.129	0.192977
759.314	0.193609
760.499	0.194647
761.684	0.195961
762.869	0.196779
764.054	0.197628
765.239	0.198216
766.424	0.19775
767.609	0.200468
768.794	0.199942
769.979	0.200838
771.164	0.202436
772.349	0.203653
773.534	0.205692
774.719	0.206189
775.904	0.205898
777.089	0.206157
778.274	0.20669
779.459	0.207222
780.644	0.207332
781.829	0.20704
783.014	0.208425
784.199	0.209326
785.384	0.212061
786.569	0.21272
787.754	0.215848
788.939	0.218707
790.124	0.221937
791.309	0.225276
792.494	0.228743
793.679	0.234146
794.864	0.240461
796.049	0.247306
797.234	0.255131
798.419	0.262819
799.604	0.271073
800.789	0.28147
801.974	0.291452
803.159	0.301598
804.344	0.311406
805.529	0.322303
806.714	0.331065
807.899	0.339175
809.084	0.347638
810.269	0.355232
811.454	0.363517
812.639	0.370196
813.823	0.375768
815.009	0.379943
816.194	0.383388
817.378	0.387267
818.564	0.390844
819.748	0.393596
820.933	0.396877
822.119	0.400967
823.303	0.404652
824.488	0.408683
825.674	0.416509
826.858	0.424239
828.044	0.433487
829.228	0.443544
830.413	0.453069
831.599	0.464715
832.783	0.477687
833.968	0.490493
835.153	0.503884
836.338	0.516792
837.523	0.528834
838.708	0.540159
839.893	0.550491
841.078	0.559258
842.263	0.567098
843.448	0.573771
844.633	0.577216
845.818	0.578875
847.003	0.577379
848.188	0.574838
849.373	0.571292
850.558	0.563723
851.743	0.554729
852.928	0.545573
854.113	0.532967
855.298	0.520417
856.483	0.506838
857.668	0.49263
858.853	0.476697
860.038	0.46031
861.223	0.443538
862.408	0.426786
863.593	0.409257
864.778	0.391311
865.963	0.373979
867.148	0.356454
868.333	0.339094
869.518	0.322146
870.703	0.305902
871.888	0.28961
873.073	0.274699
874.258	0.260995
875.443	0.249438
876.628	0.237278
877.813	0.227248
878.998	0.218197
880.183	0.208979
881.368	0.201328
882.553	0.195316
883.738	0.191411
884.923	0.189443
886.108	0.188394
887.293	0.189076
888.478	0.190333
889.663	0.191144
890.848	0.19352
892.033	0.196847
893.218	0.198968
894.403	0.201558
895.588	0.204571
896.773	0.208134
897.958	0.212825
899.143	0.217722
900.328	0.222639
901.513	0.227189
902.698	0.230334
903.883	0.233498
905.068	0.235929
906.253	0.237737
907.438	0.238831
908.623	0.242239
909.808	0.243969
910.993	0.245513
912.178	0.245366
913.363	0.245216
914.548	0.244716
915.733	0.242281
916.918	0.238351
918.103	0.233043
919.288	0.227274
920.473	0.221109
921.658	0.213668
922.843	0.205373
924.028	0.196054
925.213	0.186577
926.398	0.17631
927.583	0.164219
928.768	0.152872
929.953	0.141475
931.138	0.131074
932.323	0.119654
933.508	0.108057
934.693	0.0979953
935.878	0.0880745
937.063	0.0794643
938.248	0.0704563
939.433	0.0630401
940.618	0.0560566
941.803	0.0504116
942.988	0.0447543
944.173	0.040616
945.358	0.0376876
946.543	0.0340449
947.728	0.03135
948.913	0.029631
950.098	0.0283477
951.283	0.0278475
952.468	0.0279191
953.653	0.0278579
954.838	0.0280378
956.023	0.029239
957.208	0.0309008
958.393	0.0324416
959.578	0.0339032
960.763	0.0350009
961.948	0.0360052
963.133	0.0360087
964.318	0.0355368
965.503	0.0363986
966.688	0.0356012
967.873	0.0354692
969.058	0.034504
970.243	0.0320584
971.428	0.029899
972.613	0.0281667
973.798	0.0255695
974.983	0.0230063
976.168	0.0199146
977.353	0.0161587
978.538	0.0133627
979.723	0.0100053
980.908	0.0068272
982.093	0.00441964
983.278	0.00185768
984.463	0.000272669
985.648	-0.00178683
986.833	-0.00307546
988.018	-0.00330506
989.203	-0.00384778
990.388	-0.00376673
991.573	-0.0036086
992.758	-0.00500903
993.943	-0.00597266
995.128	-0.00543024
996.313	-0.00457576
997.498	-0.0040065
998.683	-0.00358897
999.868	-0.00230389
1001.05	-0.000757255
1002.24	0.000352551
1003.42	0.0026739
1004.61	0.00523628
1005.79	0.00698921
1006.98	0.00893876
1008.16	0.0113434
1009.35	0.0130057
1010.53	0.0166159
1011.72	0.0234002
1012.9	0.0297878
1014.09	0.0359116
1015.27	0.0432377
1016.46	0.0526905
1017.64	0.0633659
1018.83	0.0731285
1020.01	0.0868562
1021.2	0.0988289
1022.38	0.110615
1023.57	0.123158
1024.75	0.140019
1025.94	0.156342
1027.12	0.173681
1028.31	0.191498
1029.49	0.206749
1030.68	0.224025
1031.86	0.241151
1033.05	0.258212
1034.23	0.27509
1035.42	0.290308
1036.6	0.304651
1037.79	0.316977
1038.97	0.326796
1040.16	0.33765
1041.34	0.347828
1042.53	0.353498
1043.71	0.359635
1044.9	0.364978
1046.08	0.369726
1047.27	0.373897
1048.45	0.375076
1049.64	0.374288
1050.82	0.373157
1052.01	0.370037
1053.19	0.36617
1054.38	0.362176
1055.56	0.357566
1056.75	0.353564
1057.93	0.348946
1059.12	0.344213
1060.3	0.341197
1061.49	0.336981
1062.67	0.331246
1063.86	0.325783
1065.04	0.321251
1066.23	0.316782
1067.41	0.311684
1068.6	0.306837
1069.78	0.302415
1070.97	0.298997
1072.15	0.295973
1073.34	0.293338
1074.52	0.290669
1075.71	0.289394
1076.89	0.286686
1078.08	0.284222
1079.26	0.283317
1080.45	0.283089
1081.63	0.283533
1082.82	0.283222
1084	0.281839
1085.19	0.281594
1086.37	0.282505
1087.56	0.2843
1088.74	0.286374
1089.93	0.288631
1091.11	0.29247
1092.3	0.295782
1093.48	0.298632
1094.67	0.30278
1095.85	0.305962
1097.04	0.307904
1098.22	0.308814
1099.41	0.309829
1100.59	0.310901
1101.78	0.312857
1102.96	0.315422
1104.15	0.316371
1105.33	0.31477
1106.52	0.312936
1107.7	0.311044
1108.89	0.304721
1110.07	0.299246
1111.26	0.292894
1112.44	0.284307
1113.63	0.276398
1114.81	0.26761
1116	0.259014
1117.18	0.250009
1118.37	0.239232
1119.55	0.227358
1120.74	0.216213
1121.92	0.204363
1123.11	0.193822
1124.29	0.182737
1125.48	0.171626
1126.66	0.161244
1127.85	0.151244
1129.03	0.141911
1130.22	0.134268
1131.4	0.127266
1132.59	0.120415
1133.77	0.11333
1134.96	0.105549
1136.14	0.0997148
1137.33	0.0953518
1138.51	0.0899106
1139.7	0.0853185
1140.88	0.0809895
1142.07	0.0761327
1143.25	0.0722151
1144.44	0.0688995
1145.62	0.0660068
1146.81	0.0623211
1147.99	0.0590767
1149.18	0.0549684
1150.36	0.0508199
1151.55	0.0475163
1152.73	0.0437076
1153.92	0.0402184
1155.1	0.0369636
1156.29	0.0326586
1157.47	0.0277091
1158.66	0.0248293
1159.84	0.0235774
1161.03	0.0216698
1162.21	0.0209498
1163.4	0.0204629
1164.58	0.0201099
1165.77	0.0192627
1166.95	0.0199365
1168.14	0.0218349
1169.32	0.0244827
1170.51	0.0279846
1171.69	0.030787
1172.88	0.0345165
1174.06	0.0415729
1175.25	0.0490738
1176.43	0.0551272
1177.62	0.0606575
1178.8	0.0667725
1179.99	0.0731864
1181.17	0.0801214
1182.36	0.0883865
1183.54	0.0966917
1184.73	0.104619
1185.91	0.113071
1187.1	0.122569
1188.28	0.132153
1189.47	0.143598
1190.65	0.154652
1191.84	0.165901
1193.02	0.178762
1194.21	0.193263
1195.39	0.20686
1196.58	0.22262
1197.76	0.238701
1198.95	0.254265
1200.13	0.271156
1201.32	0.289868
1202.5	0.308454
1203.69	0.32634
1204.87	0.344587
1206.06	0.364081
1207.24	0.383428
1208.43	0.40263
1209.61	0.42292
1210.8	0.440839
1211.98	0.458598
1213.17	0.480475
1214.35	0.4993
1215.54	0.520852
1216.72	0.540376
1217.91	0.560863
1219.09	0.58067
1220.28	0.602244
1221.46	0.621956
1222.65	0.64415
1223.83	0.665663
1225.02	0.685695
1226.2	0.705927
1227.39	0.726152
1228.57	0.745662
1229.76	0.765921
1230.94	0.784935
1232.13	0.803162
1233.31	0.819641
1234.5	0.837329
1235.68	0.852229
1236.87	0.86717
1238.05	0.880201
1239.24	0.893297
1240.42	0.903656
1241.61	0.913237
1242.79	0.922618
1243.98	0.929807
1245.16	0.935725
1246.35	0.941434
1247.53	0.944507
1248.72	0.947103
1249.9	0.948225
1251.09	0.945637
1252.27	0.943803
1253.46	0.940629
1254.64	0.936077
1255.83	0.93281
1257.01	0.92638
1258.2	0.919615
1259.38	0.911598
1260.57	0.902211
1261.75	0.895164
1262.94	0.883191
1264.12	0.872815
1265.31	0.86127
1266.49	0.846061
1267.68	0.833258
1268.86	0.821757
1270.05	0.80625
1271.23	0.790918
1272.42	0.77841
1273.6	0.76252
1274.79	0.748788
1275.97	0.732418
1277.16	0.716134
1278.34	0.698218
1279.53	0.678755
1280.71	0.66185
1281.9	0.644895
1283.08	0.627721
1284.27	0.610792
1285.45	0.593801
1286.64	0.578382
1287.82	0.564358
1289.01	0.547736
1290.19	0.530027
1291.38	0.51478
1292.56	0.500603
1293.75	0.486727
1294.93	0.473558
1296.12	0.461562
1297.3	0.450821
1298.49	0.437669
1299.67	0.426832
1300.86	0.415428
1302.04	0.40442
1303.23	0.392576
1304.41	0.380855
1305.6	0.371034
1306.78	0.362036
1307.97	0.351656
1309.15	0.339291
1310.34	0.328313
1311.52	0.318511
1312.71	0.30938
1313.89	0.299931
1315.08	0.291636
1316.26	0.281848
1317.45	0.27299
1318.63	0.265963
1319.82	0.258951
1321	0.250793
1322.19	0.241413
1323.37	0.233038
1324.56	0.226209
1325.74	0.220029
1326.93	0.214705
1328.11	0.208256
1329.3	0.202317
1330.48	0.197462
1331.67	0.190027
1332.85	0.184833
1334.04	0.179857
1335.22	0.174442
1336.41	0.169464
1337.59	0.164644
1338.78	0.16164
1339.96	0.158116
1341.15	0.152834
1342.33	0.147546
1343.52	0.142673
1344.7	0.137033
1345.89	0.132399
1347.07	0.126698
1348.26	0.12325
1349.44	0.120114
1350.63	0.116235
1351.81	0.111187
1353	0.10632
1354.18	0.103121
1355.37	0.0997726
1356.55	0.0954649
1357.74	0.0911683
1358.92	0.0868077
1360.11	0.083118
1361.29	0.0812096
1362.48	0.0772986
1363.66	0.0752098
1364.85	0.0701552
1366.03	0.066264
1367.22	0.060931
1368.4	0.0571367
1369.59	0.0545059
1370.77	0.0507827
1371.96	0.0465166
1373.14	0.0431658
1374.33	0.0402348
1375.51	0.0377726
1376.7	0.0351763
1377.88	0.0321424
1379.07	0.0285355
1380.25	0.0259044
1381.44	0.0253895
1382.62	0.0231423
1383.81	0.0228427
1384.99	0.0207178
1386.18	0.0190853
1387.36	0.0154702
1388.55	0.0146136
1389.73	0.012933
1390.92	0.0113383
1392.1	0.010799
1393.29	0.010828
1394.47	0.0100858
1395.66	0.0101773
1396.84	0.00957536
1398.03	0.00800852
1399.21	0.00701534
1400.4	0.0068312
1401.58	0.00596269
1402.77	0.00504746
1403.95	0.00733768
1405.14	0.00897739
1406.32	0.00672145
1407.51	0.00721768
1408.69	0.00742434
1409.88	0.00547503
1411.06	0.0041219
1412.25	0.00416227
1413.43	0.00445923
1414.62	0.00537013
1415.8	0.00607026
1416.99	0.0067173
1418.17	0.00912416
1419.36	0.0118072
1420.54	0.0122292
1421.73	0.011876
1422.91	0.0145298
1424.1	0.0166901
1425.28	0.0169037
1426.47	0.0193926
1427.65	0.0236076
1428.84	0.0258615
1430.02	0.0293521
1431.21	0.0328391
1432.39	0.0377894
1433.58	0.043423
1434.76	0.0486556
1435.95	0.0549085
1437.13	0.0636051
1438.32	0.0729888
1439.5	0.0818972
1440.69	0.0899016
1441.87	0.101382
1443.06	0.11324
1444.24	0.124013
1445.43	0.135682
1446.61	0.145957
1447.8	0.157596
1448.98	0.168675
1450.17	0.177878
1451.35	0.186883
1452.54	0.193791
1453.72	0.199945
1454.91	0.205121
1456.09	0.210192
1457.28	0.21242
1458.46	0.213559
1459.65	0.212655
1460.83	0.210113
1462.02	0.205924
1463.2	0.201186
1464.39	0.194921
1465.57	0.186844
1466.76	0.17818
1467.94	0.168777
1469.13	0.158862
1470.31	0.147451
1471.5	0.134851
1472.68	0.121643
1473.87	0.110259
1475.05	0.0979989
1476.24	0.0871752
1477.42	0.0761988
1478.61	0.0662754
1479.79	0.0567119
1480.98	0.0465348
1482.16	0.0378682
1483.35	0.0288677
1484.53	0.0202336
1485.72	0.0153937
1486.9	0.00980557
1488.09	0.00500036
1489.27	0.00188809
1490.46	0.000407546
1491.64	-0.000155126
1492.83	-0.00398512
1494.01	-0.00449992
1495.2	-0.0035947
1496.38	-0.00415064
1497.57	-0.00460367
1498.75	-0.00531719
1499.94	-0.00462825
1501.12	-0.00350585
1502.31	-0.00365141
1503.49	-0.00236982
1504.68	-0.000818397
1505.86	0.000602958
1507.05	0.00125523
1508.23	0.00264625
1509.42	0.00635324
1510.6	0.00657885
1511.79	0.00758829
1512.97	0.0108634
1514.16	0.0140386
1515.34	0.0174485
1516.53	0.0198691
1517.71	0.0219041
1518.9	0.0223617
1520.08	0.0232823
1521.27	0.0251354
1522.45	0.0251409
1523.64	0.0258306
1524.82	0.0249824
1526.01	0.0256146
1527.19	0.027603
1528.38	0.0274878
1529.56	0.0266217
1530.75	0.0258544
1531.93	0.0247785
1533.12	0.0250865
1534.3	0.0255218
1535.49	0.0276099
1536.67	0.0291797
1537.86	0.0293408
1539.04	0.030576
1540.23	0.0309562
1541.41	0.0316978
1542.6	0.0317871
1543.78	0.0322149
1544.97	0.0333924
1546.15	0.0333128
1547.34	0.0334807
1548.52	0.0333777
1549.71	0.0332061
1550.89	0.0324866
1552.08	0.0308379
1553.26	0.0296215
1554.45	0.0292639
1555.63	0.0289733
1556.82	0.0290728
1558	0.0288468
1559.19	0.0283615
1560.37	0.026385
1561.56	0.0244989
1562.74	0.0236006
1563.93	0.0229429
1565.11	0.022516
1566.3	0.0207001
1567.48	0.0198392
1568.67	0.0197606
1569.85	0.0187536
1571.04	0.0178906
1572.22	0.0169755
1573.41	0.0155124
1574.59	0.0138588
1575.78	0.012818
1576.96	0.0118202
1578.15	0.0113288
1579.33	0.0114457
1580.52	0.0106414
1581.7	0.0106594
1582.89	0.0110745
1584.07	0.0104094
1585.26	0.00958719
1586.44	0.00894966
1587.63	0.00726453
1588.81	0.00618625
1590	0.0054647
1591.18	0.00504791
1592.37	0.00393227
1593.55	0.00377264
1594.74	0.00347862
1595.92	0.00232086
1597.11	0.0018357
1598.29	0.00133187
1599.48	0.000535423
1600.66	-0.00113337
1601.85	-0.000905745
1603.03	-0.00110597
1604.22	-0.000647143
1605.4	-0.000578034
1606.59	-0.000931558
1607.77	-0.00171134
1608.96	-0.00191528
1610.14	-0.00310792
1611.33	-0.00383613
1612.51	-0.00394166
1613.7	-0.00432671
1614.88	-0.00515602
1616.07	-0.004331
1617.25	-0.00330051
1618.44	-0.00326237
1619.62	-0.00255002
1620.81	-0.00240419
1621.99	-0.00284352
1623.18	-0.00293517
1624.36	-0.00202816
1625.55	-0.00282692
1626.73	-0.00319521
1627.92	-0.00365322
1629.1	-0.00416544
1630.29	-0.00406006
1631.47	-0.00505297
1632.66	-0.00582562
1633.84	-0.0059083
1635.03	-0.00629052
1636.21	-0.00632889
1637.4	-0.00374452
1638.58	-0.00201846
1639.77	-9.24116e-005
1640.95	0.0018817
1642.14	0.00396323
1643.32	0.00637886
1644.51	0.00797958
1645.69	0.00831274
1646.88	0.00991963
1648.06	0.0119352
1649.25	0.0117959
1650.43	0.01317
1651.62	0.0150146
1652.8	0.0152916
1653.99	0.0153909
1655.17	0.016218
1656.36	0.0170691
1657.54	0.0184134
1658.73	0.0190869
1659.91	0.0202404
1661.1	0.0227351
1662.28	0.0250312
1663.47	0.0265903
1664.65	0.0273973
1665.84	0.0298787
1667.02	0.030467
1668.21	0.0318466
1669.39	0.0337632
1670.58	0.035247
1671.76	0.0357664
1672.95	0.0370938
1674.13	0.0361953
1675.32	0.0364394
1676.5	0.0361584
1677.69	0.0355838
1678.87	0.0355149
1680.06	0.0366974
1681.24	0.0372763
1682.43	0.037733
1683.61	0.0375366
1684.8	0.0377581
1685.98	0.037965
1687.17	0.0379743
1688.35	0.0383425
1689.54	0.0400464
1690.72	0.0425603
1691.91	0.0443154
1693.09	0.0456239
1694.28	0.0479806
1695.46	0.0482094
1696.65	0.0483662
1697.83	0.0483774
1699.02	0.0497345
1700.2	0.0509618
1701.39	0.0525792
1702.57	0.0535988
1703.76	0.0552216
1704.94	0.0554299
1706.13	0.0559589
1707.31	0.0546405
1708.5	0.0540935
1709.68	0.0545695
1710.87	0.0552325
1712.05	0.0556555
1713.24	0.0570532
1714.42	0.0575214
1715.61	0.0569785
1716.79	0.0552137
1717.98	0.0549029
1719.16	0.0546442
1720.35	0.0542557
1721.53	0.0539598
1722.72	0.05428
1723.9	0.0553801
1725.09	0.0548847
1726.27	0.0540964
1727.46	0.0532559
1728.64	0.0524487
1729.83	0.0512159
1731.01	0.0501849
1732.2	0.0503064
1733.38	0.0495034
1734.57	0.0486873
1735.75	0.0483184
1736.94	0.048225
1738.12	0.0472673
1739.31	0.0457169
1740.49	0.0443005
1741.68	0.0434893
1742.86	0.0424995
1744.05	0.0422304
1745.23	0.0415043
1746.42	0.0410621
1747.6	0.0403644
1748.79	0.0404956
1749.97	0.0397983
1751.16	0.0380211
1752.34	0.0368639
1753.53	0.0361759
1754.71	0.0356114
1755.9	0.0352607
1757.08	0.0345968
1758.27	0.0338257
1759.45	0.0328051
1760.64	0.0309063
1761.82	0.0299343
1763.01	0.028447
1764.19	0.0260543
1765.38	0.0240683
1766.56	0.0235294
1767.74	0.0229333
1768.93	0.0206119
1770.12	0.0196396
1771.3	0.0185801
1772.49	0.017191
1773.67	0.0155903
1774.85	0.0141266
1776.04	0.0141079
1777.23	0.0131251
1778.41	0.0111912
1779.6	0.0107818
1780.78	0.0100898
1781.97	0.00878626
1783.15	0.00616844
1784.34	0.00507214
1785.52	0.0037605
1786.7	0.00185264
1787.89	-4.01789e-005
1789.08	-0.000687063
1790.26	-0.00195559
1791.45	-0.00419545
1792.63	-0.00609734
1793.81	-0.0071181
1795	-0.00839128
