405	0.225388
406.185	0.222232
407.37	0.217811
408.555	0.212351
409.74	0.205935
410.925	0.19856
412.11	0.190482
413.295	0.182535
414.48	0.176008
415.665	0.167126
416.85	0.15828
418.035	0.148086
419.22	0.13841
420.405	0.128246
421.59	0.116791
422.775	0.105778
423.96	0.0963699
425.145	0.086322
426.33	0.0755719
427.515	0.0667841
428.7	0.0576976
429.885	0.0490955
431.07	0.0419112
432.255	0.0352167
433.44	0.0277802
434.625	0.0221001
435.81	0.0164304
436.995	0.0105682
438.18	0.00530633
439.365	0.000326927
440.55	-0.00439305
441.735	-0.00768847
442.92	-0.0085008
444.105	-0.0101709
445.29	-0.0105657
446.475	-0.009592
447.66	-0.00850795
448.845	-0.00706865
450.03	-0.00509474
451.215	-0.00259938
452.4	0.000684025
453.585	0.00553495
454.77	0.0114471
455.955	0.0189514
457.14	0.0287382
458.325	0.0388338
459.51	0.049242
460.695	0.0613218
461.88	0.0739261
463.065	0.0842902
464.25	0.0971655
465.435	0.109324
466.62	0.122988
467.805	0.136512
468.99	0.147913
470.175	0.15989
471.36	0.172288
472.545	0.183199
473.73	0.193606
474.915	0.201634
476.1	0.205563
477.285	0.207809
478.47	0.208718
479.655	0.209643
480.84	0.208896
482.025	0.206501
483.21	0.20361
484.395	0.198629
485.58	0.191733
486.765	0.182756
487.95	0.173191
489.135	0.165202
490.32	0.154957
491.505	0.143154
492.69	0.130848
493.875	0.117916
495.06	0.105973
496.245	0.0976952
497.43	0.0879703
498.615	0.0788373
499.8	0.0688981
500.985	0.0593518
502.17	0.0514345
503.355	0.0443403
504.54	0.0373392
505.725	0.0315942
506.91	0.0256162
508.095	0.0192165
509.28	0.0135487
510.465	0.00811375
511.65	0.0037711
512.835	0.00170073
514.02	0.00079873
515.205	-0.000883526
516.39	-0.00325758
517.575	-0.00405037
518.76	-0.00411103
519.945	-0.00503436
521.13	-0.00527737
522.315	-0.00659838
523.5	-0.00778164
524.685	-0.00785902
525.87	-0.00650247
527.055	-0.00409523
528.24	-0.00206274
529.425	-0.0014237
530.61	7.9426e-006
531.795	0.00145993
532.98	0.00221548
534.164	0.00338768
535.35	0.00468806
536.535	0.00609129
537.719	0.00736076
538.905	0.00804303
540.089	0.00920875
541.275	0.0100014
542.46	0.010602
543.644	0.0100682
544.83	0.00885546
546.014	0.00738342
547.199	0.0056266
548.385	0.00475542
549.569	0.00529028
550.754	0.00594256
551.94	0.00691456
553.124	0.00563346
554.309	0.00351858
555.494	0.00198311
556.679	0.000238776
557.865	-0.000557286
559.049	-0.000819382
560.234	-0.00178099
561.419	-0.00349969
562.604	-0.0042915
563.789	-0.00282168
564.974	-0.00206753
566.159	-0.00343078
567.344	-0.00299811
568.529	-0.00382587
569.714	-0.00440223
570.899	-0.00551946
572.084	-0.00689155
573.269	-0.00747475
574.454	-0.00767071
575.639	-0.00801569
576.824	-0.00829216
578.009	-0.00794027
579.194	-0.00807502
580.379	-0.00668972
581.564	-0.00472109
582.749	-0.0042706
583.934	-0.00539762
585.119	-0.00578072
586.304	-0.00461728
587.489	-0.00446124
588.674	-0.00346302
589.859	-0.00404196
591.044	-0.00291237
592.229	-0.00269399
593.414	-0.00157009
594.599	-0.000203146
595.784	0.000379726
596.969	0.000630664
598.154	0.00162413
599.339	0.00319834
600.524	0.00411469
601.709	0.00496262
602.894	0.00619851
604.079	0.00936188
605.264	0.0102785
606.449	0.0108578
607.634	0.0119505
608.819	0.0138549
610.004	0.0157554
611.189	0.0172625
612.374	0.0189196
613.559	0.0197007
614.744	0.0225026
615.929	0.025486
617.114	0.0265382
618.299	0.0280249
619.484	0.0299505
620.669	0.0310411
621.854	0.0326982
623.039	0.0351034
624.224	0.0373421
625.409	0.0398838
626.594	0.0426099
627.779	0.0443331
628.964	0.0462334
630.149	0.0487187
631.334	0.0519082
632.519	0.0554837
633.704	0.0578988
634.889	0.0604609
636.074	0.0638382
637.259	0.0670655
638.444	0.0698405
639.629	0.0733377
640.814	0.0775603
641.999	0.0811562
643.184	0.0828993
644.369	0.0857115
645.554	0.0908616
646.739	0.0955071
647.924	0.100459
649.109	0.105488
650.294	0.110548
651.479	0.1156
652.664	0.120098
653.849	0.125122
655.034	0.130173
656.219	0.135465
657.404	0.140589
658.589	0.144984
659.774	0.150227
660.959	0.153915
662.144	0.157114
663.329	0.160783
664.514	0.163951
665.699	0.166518
666.884	0.169272
668.069	0.170773
669.254	0.172819
670.439	0.172201
671.624	0.172407
672.809	0.171742
673.994	0.170012
675.179	0.16815
676.364	0.166214
677.549	0.164303
678.734	0.161429
679.919	0.158086
681.104	0.156163
682.289	0.154919
683.474	0.152763
684.659	0.149819
685.844	0.146688
687.029	0.144783
688.214	0.141298
689.399	0.13938
690.584	0.138479
691.769	0.136997
692.954	0.135913
694.139	0.135644
695.324	0.135237
696.509	0.134225
697.694	0.132806
698.879	0.132351
700.064	0.132242
701.249	0.133002
702.434	0.133216
703.619	0.133148
704.804	0.134432
705.989	0.134549
707.174	0.135315
708.359	0.136539
709.544	0.136794
710.729	0.137039
711.914	0.138003
713.099	0.137729
714.284	0.137916
715.469	0.139685
716.654	0.141342
717.839	0.143953
719.024	0.145173
720.209	0.146287
721.394	0.147645
722.579	0.149666
723.764	0.150927
724.949	0.152034
726.134	0.153438
727.319	0.154949
728.504	0.156816
729.689	0.15823
730.874	0.160333
732.059	0.161899
733.244	0.163649
734.429	0.162926
735.614	0.165035
736.799	0.166262
737.984	0.168406
739.169	0.169468
740.354	0.170894
741.539	0.172539
742.724	0.173292
743.909	0.173584
745.094	0.173949
746.279	0.173996
747.464	0.174178
748.649	0.175306
749.834	0.174651
751.019	0.176497
752.204	0.177983
753.389	0.179392
754.574	0.17953
755.759	0.180056
756.944	0.180321
758.129	0.181492
759.314	0.18206
760.499	0.181709
761.684	0.181969
762.869	0.182709
764.054	0.183795
765.239	0.184163
766.424	0.184826
767.609	0.185682
768.794	0.18773
769.979	0.187957
771.164	0.187521
772.349	0.187993
773.534	0.187873
774.719	0.187738
775.904	0.187735
777.089	0.187137
778.274	0.186527
779.459	0.186434
780.644	0.187058
781.829	0.188393
783.014	0.188766
784.199	0.19071
785.384	0.191397
786.569	0.192206
787.754	0.192211
788.939	0.194871
790.124	0.196537
791.309	0.200829
792.494	0.205537
793.679	0.210531
794.864	0.216529
796.049	0.222881
797.234	0.22996
798.419	0.237502
799.604	0.245211
800.789	0.254906
801.974	0.266089
803.159	0.275462
804.344	0.285703
805.529	0.295194
806.714	0.305548
807.899	0.313542
809.084	0.323186
810.269	0.330618
811.454	0.337908
812.639	0.344149
813.824	0.349222
815.009	0.353984
816.193	0.357571
817.379	0.361466
818.564	0.365155
819.748	0.367293
820.934	0.370136
822.118	0.374279
823.303	0.378033
824.489	0.38388
825.673	0.389447
826.859	0.397078
828.043	0.405691
829.228	0.414881
830.414	0.425385
831.598	0.43784
832.783	0.449599
833.969	0.461718
835.153	0.474545
836.338	0.487516
837.523	0.499688
838.708	0.51023
839.893	0.518574
841.078	0.526534
842.263	0.533898
843.448	0.538633
844.633	0.542984
845.818	0.545371
847.003	0.544717
848.188	0.541889
849.373	0.535968
850.558	0.527854
851.743	0.520369
852.928	0.5107
854.113	0.500426
855.298	0.486797
856.483	0.47285
857.668	0.458293
858.853	0.444217
860.038	0.428615
861.223	0.412595
862.408	0.396461
863.593	0.379199
864.778	0.361871
865.963	0.345007
867.148	0.328413
868.333	0.312688
869.518	0.295946
870.703	0.28071
871.888	0.267155
873.073	0.253301
874.258	0.24019
875.443	0.228073
876.628	0.218257
877.813	0.208733
878.998	0.200236
880.183	0.193506
881.368	0.18791
882.553	0.182438
883.738	0.177447
884.923	0.174694
886.108	0.1731
887.293	0.173352
888.478	0.174377
889.663	0.175345
890.848	0.176884
892.033	0.17964
893.218	0.183628
894.403	0.18746
895.588	0.191397
896.773	0.196067
897.958	0.200404
899.143	0.204022
900.328	0.207863
901.513	0.212449
902.698	0.217239
903.883	0.220687
905.068	0.225032
906.253	0.227836
907.438	0.230074
908.623	0.232153
909.808	0.234363
910.993	0.235792
912.178	0.235102
913.363	0.233498
914.548	0.230095
915.733	0.225957
916.918	0.222247
918.103	0.218595
919.288	0.213931
920.473	0.207392
921.658	0.199603
922.843	0.191173
924.028	0.182
925.213	0.173246
926.398	0.163944
927.583	0.153132
928.768	0.141603
929.953	0.129191
931.138	0.119129
932.323	0.108129
933.508	0.098785
934.693	0.0881688
935.878	0.0777597
937.063	0.0669566
938.248	0.0586791
939.433	0.0522515
940.618	0.0466623
941.803	0.0412678
942.988	0.0359729
944.173	0.0303784
945.358	0.0264524
946.543	0.0232399
947.728	0.0206656
948.913	0.0194384
950.098	0.0194637
951.283	0.0195506
952.468	0.0202726
953.653	0.0215458
954.838	0.0228404
956.023	0.0245064
957.208	0.0258298
958.393	0.0267256
959.578	0.0274613
960.763	0.0289716
961.948	0.0312896
963.133	0.0334086
964.318	0.0346545
965.503	0.0356538
966.688	0.0368092
967.873	0.036206
969.058	0.0348522
970.243	0.0332868
971.428	0.0312135
972.613	0.0291249
973.798	0.0262046
974.983	0.0232008
976.168	0.0205266
977.353	0.0170026
978.538	0.0133913
979.723	0.00964611
980.908	0.00689828
982.093	0.00470886
983.278	0.00242109
984.463	-5.67936e-005
985.648	-0.00133879
986.833	-0.00204088
988.018	-0.00266402
989.203	-0.00337731
990.388	-0.00377404
991.573	-0.00433089
992.758	-0.00532473
993.943	-0.0064856
995.128	-0.00610607
996.313	-0.00503938
997.498	-0.00507635
998.683	-0.00506842
999.868	-0.00505028
1001.05	-0.00516217
1002.24	-0.00476972
1003.42	-0.00450648
1004.61	-0.00396282
1005.79	-0.00247158
1006.98	0.000385099
1008.16	0.00439666
1009.35	0.00767253
1010.53	0.0129522
1011.72	0.0196563
1012.9	0.0270455
1014.09	0.0336761
1015.27	0.0418117
1016.46	0.0501833
1017.64	0.0595103
1018.83	0.0702365
1020.01	0.0821797
1021.2	0.0971894
1022.38	0.109474
1023.57	0.122979
1024.75	0.138357
1025.94	0.15106
1027.12	0.167278
1028.31	0.182947
1029.49	0.198288
1030.68	0.213
1031.86	0.229796
1033.05	0.245755
1034.23	0.261559
1035.42	0.276782
1036.6	0.289045
1037.79	0.300644
1038.97	0.310243
1040.16	0.320452
1041.34	0.330495
1042.53	0.338098
1043.71	0.345719
1044.9	0.351183
1046.08	0.355805
1047.27	0.35867
1048.45	0.359791
1049.64	0.359251
1050.82	0.357879
1052.01	0.35425
1053.19	0.348973
1054.38	0.345845
1055.56	0.343386
1056.75	0.340283
1057.93	0.336512
1059.12	0.331967
1060.3	0.327281
1061.49	0.322234
1062.67	0.317254
1063.86	0.312328
1065.04	0.307664
1066.23	0.304041
1067.41	0.300334
1068.6	0.296244
1069.78	0.294101
1070.97	0.293848
1072.15	0.292499
1073.34	0.290732
1074.52	0.289165
1075.71	0.287418
1076.89	0.286518
1078.08	0.285493
1079.26	0.284775
1080.45	0.285717
1081.63	0.287129
1082.82	0.288314
1084	0.289816
1085.19	0.291381
1086.37	0.293486
1087.56	0.29592
1088.74	0.299049
1089.93	0.302127
1091.11	0.305116
1092.3	0.307749
1093.48	0.310334
1094.67	0.312685
1095.85	0.315405
1097.04	0.319438
1098.22	0.321754
1099.41	0.323373
1100.59	0.324511
1101.78	0.325844
1102.96	0.326011
1104.15	0.325753
1105.33	0.324847
1106.52	0.321707
1107.7	0.317729
1108.89	0.31355
1110.07	0.308371
1111.26	0.302575
1112.44	0.295966
1113.63	0.288651
1114.81	0.280192
1116	0.271481
1117.18	0.261836
1118.37	0.251939
1119.55	0.24228
1120.74	0.23246
1121.92	0.221967
1123.11	0.212256
1124.29	0.202833
1125.48	0.193732
1126.66	0.183642
1127.85	0.17454
1129.03	0.165965
1130.22	0.158721
1131.4	0.148858
1132.59	0.139914
1133.77	0.132163
1134.96	0.125835
1136.14	0.12052
1137.33	0.113637
1138.51	0.108219
1139.7	0.103625
1140.88	0.098586
1142.07	0.0935383
1143.25	0.0891442
1144.44	0.0862856
1145.62	0.0828125
1146.81	0.0798335
1147.99	0.0759262
1149.18	0.0748724
1150.36	0.071443
1151.55	0.0680263
1152.73	0.0653122
1153.92	0.0626795
1155.1	0.0604961
1156.29	0.0583542
1157.47	0.055768
1158.66	0.0539719
1159.84	0.0516075
1161.03	0.0489864
1162.21	0.0474381
1163.4	0.047084
1164.58	0.0468284
1165.77	0.0473656
1166.95	0.0478353
1168.14	0.0503105
1169.32	0.0526996
1170.51	0.0556922
1171.69	0.0592221
1172.88	0.0628524
1174.06	0.0665644
1175.25	0.0708255
1176.43	0.0758715
1177.62	0.0813581
1178.8	0.0870389
1179.99	0.0929935
1181.17	0.0992946
1182.36	0.105361
1183.54	0.112931
1184.73	0.122612
1185.91	0.133733
1187.1	0.143703
1188.28	0.153075
1189.47	0.162521
1190.65	0.174056
1191.84	0.18766
1193.02	0.200789
1194.21	0.214769
1195.39	0.230206
1196.58	0.244922
1197.76	0.260016
1198.95	0.276806
1200.13	0.295139
1201.32	0.312942
1202.5	0.329931
1203.69	0.347024
1204.87	0.366437
1206.06	0.384364
1207.24	0.404944
1208.43	0.423121
1209.61	0.441433
1210.8	0.459983
1211.98	0.477647
1213.17	0.498252
1214.35	0.519189
1215.54	0.540706
1216.72	0.562525
1217.91	0.58254
1219.09	0.601455
1220.28	0.621864
1221.46	0.642203
1222.65	0.662945
1223.83	0.683577
1225.02	0.702674
1226.2	0.722018
1227.39	0.742777
1228.57	0.765191
1229.76	0.786243
1230.94	0.804152
1232.13	0.823363
1233.31	0.837823
1234.5	0.851387
1235.68	0.8652
1236.87	0.879054
1238.05	0.891145
1239.24	0.901659
1240.42	0.910124
1241.61	0.918562
1242.79	0.92673
1243.98	0.93328
1245.16	0.937129
1246.35	0.939721
1247.53	0.944085
1248.72	0.946994
1249.9	0.947666
1251.09	0.948225
1252.27	0.947896
1253.46	0.947051
1254.64	0.943723
1255.83	0.937549
1257.01	0.933931
1258.2	0.931546
1259.38	0.92712
1260.57	0.920368
1261.75	0.912731
1262.94	0.90371
1264.12	0.891406
1265.31	0.878344
1266.49	0.865729
1267.68	0.855428
1268.86	0.841418
1270.05	0.828032
1271.23	0.81168
1272.42	0.796862
1273.6	0.783036
1274.79	0.765644
1275.97	0.747341
1277.16	0.730048
1278.34	0.713263
1279.53	0.696766
1280.71	0.680068
1281.9	0.663932
1283.08	0.644666
1284.27	0.625093
1285.45	0.60711
1286.64	0.590485
1287.82	0.573342
1289.01	0.556897
1290.19	0.541956
1291.38	0.527066
1292.56	0.511857
1293.75	0.498417
1294.93	0.484815
1296.12	0.469903
1297.3	0.456493
1298.49	0.444111
1299.67	0.433173
1300.86	0.423175
1302.04	0.411517
1303.23	0.401319
1304.41	0.391236
1305.6	0.383723
1306.78	0.373476
1307.97	0.362457
1309.15	0.353728
1310.34	0.345669
1311.52	0.335144
1312.71	0.326456
1313.89	0.318925
1315.08	0.310449
1316.26	0.301429
1317.45	0.293729
1318.63	0.28697
1319.82	0.280203
1321	0.272895
1322.19	0.266317
1323.37	0.260121
1324.56	0.253639
1325.74	0.246208
1326.93	0.237278
1328.11	0.229639
1329.3	0.222839
1330.48	0.215813
1331.67	0.208967
1332.85	0.203831
1334.04	0.197622
1335.22	0.192224
1336.41	0.183809
1337.59	0.179398
1338.78	0.174564
1339.96	0.168965
1341.15	0.163511
1342.33	0.158816
1343.52	0.154719
1344.7	0.149956
1345.89	0.146064
1347.07	0.141756
1348.26	0.137876
1349.44	0.135093
1350.63	0.131527
1351.81	0.128037
1353	0.125748
1354.18	0.120507
1355.37	0.113722
1356.55	0.108157
1357.74	0.104563
1358.92	0.0995338
1360.11	0.095361
1361.29	0.0926553
1362.48	0.0892604
1363.66	0.0851666
1364.85	0.0811588
1366.03	0.075628
1367.22	0.0697361
1368.4	0.0667785
1369.59	0.0626618
1370.77	0.0593739
1371.96	0.0574094
1373.14	0.0551569
1374.33	0.0520775
1375.51	0.0494543
1376.7	0.0456308
1377.88	0.0420557
1379.07	0.038687
1380.25	0.0371198
1381.44	0.0356387
1382.62	0.0331289
1383.81	0.0320221
1384.99	0.0287863
1386.18	0.0271122
1387.36	0.0257614
1388.55	0.0248401
1389.73	0.0234638
1390.92	0.0216938
1392.1	0.0207286
1393.29	0.0210961
1394.47	0.020585
1395.66	0.0188988
1396.84	0.0165267
1398.03	0.0147527
1399.21	0.0149489
1400.4	0.0146833
1401.58	0.0138598
1402.77	0.0124239
1403.95	0.0111037
1405.14	0.010592
1406.32	0.0110257
1407.51	0.0103705
1408.69	0.0106113
1409.88	0.0102559
1411.06	0.0101739
1412.25	0.0104943
1413.43	0.011333
1414.62	0.0125953
1415.8	0.0140492
1416.99	0.0149594
1418.17	0.0168134
1419.36	0.0179833
1420.54	0.018641
1421.73	0.0199328
1422.91	0.0207524
1424.1	0.0228618
1425.28	0.0248961
1426.47	0.0253322
1427.65	0.0260392
1428.84	0.0298645
1430.02	0.0331875
1431.21	0.037058
1432.39	0.0406468
1433.58	0.0451597
1434.76	0.0503426
1435.95	0.0575503
1437.13	0.0669746
1438.32	0.0763221
1439.5	0.0848739
1440.69	0.0945896
1441.87	0.10321
1443.06	0.113853
1444.24	0.1269
1445.43	0.138531
1446.61	0.149581
1447.8	0.159109
1448.98	0.16773
1450.17	0.177643
1451.35	0.186286
1452.54	0.193223
1453.72	0.198646
1454.91	0.202617
1456.09	0.206276
1457.28	0.207142
1458.46	0.210006
1459.65	0.209515
1460.83	0.208322
1462.02	0.202159
1463.2	0.196724
1464.39	0.190466
1465.57	0.182929
1466.76	0.174163
1467.94	0.164093
1469.13	0.153608
1470.31	0.142557
1471.5	0.130575
1472.68	0.117736
1473.87	0.106942
1475.05	0.0935472
1476.24	0.0822329
1477.42	0.0694533
1478.61	0.0601954
1479.79	0.0504983
1480.98	0.0405085
1482.16	0.0326413
1483.35	0.0251495
1484.53	0.0194532
1485.72	0.0137385
1486.9	0.00869459
1488.09	0.00509075
1489.27	0.00186469
1490.46	-0.000745048
1491.64	-0.00232664
1492.83	-0.00396321
1494.01	-0.00533016
1495.2	-0.00467753
1496.38	-0.00477679
1497.57	-0.00497844
1498.75	-0.00495675
1499.94	-0.00537681
1501.12	-0.00576227
1502.31	-0.00568349
1503.49	-0.00576058
1504.68	-0.0049273
1505.86	-0.00366226
1507.05	-0.00244564
1508.23	0.00105998
1509.42	0.00267148
1510.6	0.00506979
1511.79	0.00540187
1512.97	0.0069092
1514.16	0.00991443
1515.34	0.0117163
1516.53	0.0127479
1517.71	0.0128536
1518.9	0.0142992
1520.08	0.0162884
1521.27	0.0175835
1522.45	0.0193523
1523.64	0.0199851
1524.82	0.0193031
1526.01	0.0189943
1527.19	0.0179145
1528.38	0.0180142
1529.56	0.0192219
1530.75	0.0202739
1531.93	0.0206689
1533.12	0.0222457
1534.3	0.0246418
1535.49	0.0250643
1536.67	0.025783
1537.86	0.024947
1539.04	0.0252137
1540.23	0.0246804
1541.41	0.0247089
1542.6	0.0256321
1543.78	0.0264549
1544.97	0.0263577
1546.15	0.0247945
1547.34	0.0232162
1548.52	0.022988
1549.71	0.0222216
1550.89	0.0221345
1552.08	0.021365
1553.26	0.0208664
1554.45	0.0206647
1555.63	0.0197703
1556.82	0.0188925
1558	0.0183291
1559.19	0.0184685
1560.37	0.0179831
1561.56	0.0168734
1562.74	0.0177642
1563.93	0.0185352
1565.11	0.0179891
1566.3	0.0161617
1567.48	0.0146567
1568.67	0.0147335
1569.85	0.0147979
1571.04	0.0146293
1572.22	0.0147704
1573.41	0.0148225
1574.59	0.0138682
1575.78	0.0120806
1576.96	0.0121647
1578.15	0.0124556
1579.33	0.0107887
1580.52	0.0095622
1581.7	0.0094425
1582.89	0.0100681
1584.07	0.0100232
1585.26	0.009031
1586.44	0.00850996
1587.63	0.00693093
1588.81	0.0061566
1590	0.00528852
1591.18	0.00431514
1592.37	0.00361915
1593.55	0.00215849
1594.74	0.000947248
1595.92	-0.000597562
1597.11	-0.00230725
1598.29	-0.0035119
1599.48	-0.00439075
1600.66	-0.0044661
1601.85	-0.00573769
1603.03	-0.00705143
1604.22	-0.00792483
1605.4	-0.00832083
1606.59	-0.00790436
1607.77	-0.00747549
1608.96	-0.00651916
1610.14	-0.00519418
1611.33	-0.00411446
1612.51	-0.00166816
1613.7	-0.00159957
1614.88	-0.000743211
1616.07	-0.000836704
1617.25	-0.00107751
1618.44	-0.00100457
1619.62	-6.97559e-005
1620.81	0.000911862
1621.99	0.0014748
1623.18	0.00142328
1624.36	0.0016949
1625.55	0.00167183
1626.73	0.00205858
1627.92	0.0021167
1629.1	0.00167973
1630.29	0.00205849
1631.47	0.00118873
1632.66	0.00154087
1633.84	0.00251558
1635.03	0.00297837
1636.21	0.00348384
1637.4	0.00164118
1638.58	0.00233728
1639.77	0.00247209
1640.95	0.0022969
1642.14	0.00158211
1643.32	0.00217011
1644.51	0.00318873
1645.69	0.00352827
1646.88	0.00495953
1648.06	0.00578021
1649.25	0.00633834
1650.43	0.00711432
1651.62	0.00786017
1652.8	0.00837188
1653.99	0.0101881
1655.17	0.0115742
1656.36	0.0135346
1657.54	0.0154115
1658.73	0.0158455
1659.91	0.0172489
1661.1	0.0179885
1662.28	0.0189992
1663.47	0.018972
1664.65	0.0196458
1665.84	0.0212662
1667.02	0.0229955
1668.21	0.0246458
1669.39	0.0260058
1670.58	0.0265188
1671.76	0.0266558
1672.95	0.0259594
1674.13	0.0274069
1675.32	0.029005
1676.5	0.0305231
1677.69	0.0324833
1678.87	0.0344104
1680.06	0.035271
1681.24	0.0358795
1682.43	0.0364473
1683.61	0.0366513
1684.8	0.037418
1685.98	0.0385968
1687.17	0.0401865
1688.35	0.0420211
1689.54	0.0428466
1690.72	0.042809
1691.91	0.0419067
1693.09	0.0420545
1694.28	0.0424121
1695.46	0.0435419
1696.65	0.0444691
1697.83	0.0432467
1699.02	0.0444182
1700.2	0.0449493
1701.39	0.0452918
1702.57	0.0465153
1703.76	0.0462175
1704.94	0.0458374
1706.13	0.0457243
1707.31	0.0469174
1708.5	0.0483952
1709.68	0.0482015
1710.87	0.0480313
1712.05	0.0488251
1713.24	0.0498469
1714.42	0.0497337
1715.61	0.0496463
1716.79	0.0494691
1717.98	0.0494361
1719.16	0.0483912
1720.35	0.0490303
1721.53	0.0492575
1722.72	0.0493371
1723.9	0.0493272
1725.09	0.048762
1726.27	0.0482905
1727.46	0.0472681
1728.64	0.0458023
1729.83	0.045157
1731.01	0.0453067
1732.2	0.0452646
1733.38	0.0442221
1734.57	0.0429718
1735.75	0.0414698
1736.94	0.0410114
1738.12	0.0404522
1739.31	0.0376988
1740.49	0.035919
1741.68	0.0352144
1742.86	0.0347811
1744.05	0.0347427
1745.23	0.0350838
1746.42	0.0344889
1747.6	0.033667
1748.79	0.032959
1749.97	0.0329568
1751.16	0.0332631
1752.34	0.0332688
1753.53	0.0323809
1754.71	0.0326518
1755.9	0.0327047
1757.08	0.0319695
1758.27	0.0311645
1759.45	0.0300831
1760.64	0.0292274
1761.82	0.0279689
1763.01	0.0259069
1764.19	0.024339
1765.38	0.0232099
1766.56	0.0214623
1767.74	0.0198372
1768.93	0.0178202
1770.12	0.0162867
1771.3	0.0151763
1772.49	0.013992
1773.67	0.0125282
1774.85	0.0120094
1776.04	0.00999144
1777.23	0.00957844
1778.41	0.00858642
1779.6	0.00796994
1780.78	0.00613599
1781.97	0.00400583
1783.15	0.00179955
1784.34	0.00115242
1785.52	0.000687269
1786.7	-0.000782081
1787.89	-0.00251456
1789.08	-0.00443461
1790.26	-0.00583598
1791.45	-0.00669477
1792.63	-0.0080029
1793.81	-0.00919047
1795	-0.00970528
