405	0.244324
406.185	0.253123
407.37	0.260203
408.555	0.264787
409.74	0.267278
410.925	0.267599
412.11	0.265614
413.295	0.262169
414.48	0.259316
415.665	0.253761
416.85	0.248292
418.035	0.240634
419.22	0.231229
420.405	0.220457
421.59	0.208244
422.775	0.194644
423.96	0.180544
425.145	0.168349
426.33	0.153469
427.515	0.138242
428.7	0.124155
429.885	0.110075
431.07	0.0951536
432.255	0.0803502
433.44	0.0671764
434.625	0.0551373
435.81	0.046287
436.995	0.036688
438.18	0.0279909
439.365	0.020207
440.55	0.0128435
441.735	0.00601598
442.92	0.000525968
444.105	-0.00342603
445.29	-0.00784511
446.475	-0.0102973
447.66	-0.0105657
448.845	-0.00970324
450.03	-0.00749057
451.215	-0.00318745
452.4	0.00308465
453.585	0.0101679
454.77	0.0193928
455.955	0.0289967
457.14	0.0396449
458.325	0.0509876
459.51	0.0647382
460.695	0.0817124
461.88	0.100875
463.065	0.120606
464.25	0.141045
465.435	0.163923
466.62	0.188912
467.805	0.213135
468.99	0.237476
470.175	0.261664
471.36	0.286041
472.545	0.310688
473.73	0.333837
474.915	0.354972
476.1	0.374945
477.285	0.393492
478.47	0.411273
479.655	0.425354
480.84	0.436361
482.025	0.444724
483.21	0.449859
484.395	0.452077
485.58	0.448988
486.765	0.442741
487.95	0.435741
489.135	0.424601
490.32	0.410505
491.505	0.394428
492.69	0.376592
493.875	0.357239
495.06	0.336793
496.245	0.314296
497.43	0.291491
498.615	0.267555
499.8	0.244757
500.985	0.221224
502.17	0.198409
503.355	0.177096
504.54	0.157635
505.725	0.141192
506.91	0.12382
508.095	0.108323
509.28	0.0955059
510.465	0.0842528
511.65	0.0746205
512.835	0.0661778
514.02	0.0588328
515.205	0.0528015
516.39	0.0477193
517.575	0.0423082
518.76	0.0382478
519.945	0.035822
521.13	0.0342631
522.315	0.033552
523.5	0.0338605
524.685	0.0338636
525.87	0.0329856
527.055	0.0322614
528.24	0.0325113
529.425	0.0332343
530.61	0.0339357
531.794	0.0349736
532.98	0.0354779
534.165	0.036692
535.35	0.0389294
536.535	0.0420056
537.719	0.0454188
538.905	0.0486276
540.09	0.0514936
541.274	0.0522896
542.46	0.0527826
543.644	0.0528843
544.829	0.0521531
546.015	0.0534076
547.199	0.0539798
548.384	0.0538736
549.57	0.0545399
550.754	0.0542214
551.94	0.0530792
553.124	0.0523724
554.309	0.0511177
555.495	0.0481418
556.679	0.0450172
557.864	0.0421576
559.049	0.0388958
560.234	0.0363527
561.419	0.0351345
562.604	0.0332439
563.789	0.0307869
564.974	0.0295156
566.159	0.0255882
567.344	0.023866
568.529	0.0218797
569.714	0.020491
570.899	0.0187401
572.084	0.0160239
573.269	0.0130663
574.454	0.010761
575.639	0.00925494
576.824	0.00778834
578.009	0.00688871
579.194	0.0050378
580.379	0.00316694
581.564	0.00315349
582.749	0.00262948
583.934	0.000874646
585.119	-1.09324e-005
586.304	0.000373111
587.489	-0.00107145
588.674	-0.00245174
589.859	-0.00409065
591.044	-0.00648551
592.229	-0.00464703
593.414	-0.00375053
594.599	-0.00293553
595.784	-0.00176602
596.969	-0.000875868
598.154	-0.000407743
599.339	0.000159216
600.524	0.000661597
601.709	0.00047758
602.894	0.00157255
604.079	0.00350617
605.264	0.00366213
606.449	0.00473385
607.634	0.00626617
608.819	0.00662912
610.004	0.00745848
611.189	0.00888048
612.374	0.00786797
613.559	0.00815527
614.744	0.00842972
615.929	0.00990073
617.114	0.00946676
618.299	0.00980297
619.484	0.00980248
620.669	0.0101765
621.854	0.0113838
623.039	0.0131465
624.224	0.0153442
625.409	0.0179342
626.594	0.0199918
627.779	0.021871
628.964	0.0247444
630.149	0.0275208
631.334	0.0302978
632.519	0.0327921
633.704	0.0349873
634.889	0.0371464
636.074	0.0399975
637.259	0.043966
638.444	0.0482949
639.629	0.0515257
640.814	0.0535418
641.999	0.0570431
643.184	0.0607499
644.369	0.0642301
645.554	0.0683048
646.739	0.072646
647.924	0.0785
649.109	0.0843745
650.294	0.0906928
651.479	0.0984688
652.664	0.106653
653.849	0.115663
655.034	0.123268
656.219	0.13285
657.404	0.140901
658.589	0.151014
659.774	0.160838
660.959	0.169452
662.144	0.177798
663.329	0.186753
664.514	0.195869
665.699	0.20365
666.884	0.209323
668.069	0.213839
669.254	0.217168
670.439	0.220266
671.624	0.222644
672.809	0.221211
673.994	0.221327
675.179	0.219123
676.364	0.215413
677.549	0.210727
678.734	0.205344
679.919	0.199737
681.104	0.193149
682.289	0.184327
683.474	0.175015
684.659	0.166003
685.844	0.160128
687.029	0.152743
688.214	0.145769
689.399	0.13822
690.584	0.129825
691.769	0.122654
692.954	0.115399
694.139	0.108589
695.324	0.104019
696.509	0.10034
697.694	0.0963444
698.879	0.0935725
700.064	0.0908574
701.249	0.0895646
702.434	0.0897072
703.619	0.0883235
704.804	0.085635
705.989	0.0848942
707.174	0.0854391
708.359	0.0852169
709.544	0.0852963
710.729	0.0866107
711.914	0.0879062
713.099	0.088996
714.284	0.0890881
715.469	0.0882488
716.654	0.0886584
717.839	0.0889945
719.024	0.0898107
720.209	0.090575
721.394	0.0905399
722.579	0.0921311
723.764	0.0930387
724.949	0.0925398
726.134	0.092041
727.319	0.0925057
728.504	0.0933791
729.689	0.0929872
730.874	0.0932521
732.059	0.0944575
733.244	0.0943214
734.429	0.0957371
735.614	0.0958685
736.799	0.0965969
737.984	0.0964975
739.169	0.0969005
740.354	0.0973892
741.539	0.0968129
742.724	0.0968719
743.909	0.0981887
745.094	0.0990418
746.279	0.100229
747.464	0.101434
748.649	0.102459
749.834	0.102251
751.019	0.102605
752.204	0.103827
753.389	0.104639
754.574	0.106251
755.759	0.107438
756.944	0.108368
758.129	0.109524
759.314	0.110638
760.499	0.111769
761.684	0.113265
762.869	0.115007
764.054	0.116393
765.239	0.116312
766.424	0.116839
767.609	0.117948
768.794	0.120806
769.979	0.121964
771.164	0.124533
772.349	0.126549
773.534	0.128231
774.719	0.129642
775.904	0.132725
777.089	0.135924
778.274	0.137757
779.459	0.139331
780.644	0.140533
781.829	0.140739
783.014	0.142532
784.199	0.144586
785.384	0.146844
786.569	0.148336
787.754	0.150079
788.939	0.152138
790.124	0.154634
791.309	0.157983
792.494	0.16285
793.679	0.168913
794.864	0.175772
796.049	0.183466
797.234	0.193079
798.419	0.204526
799.604	0.217492
800.789	0.232185
801.974	0.247667
803.159	0.265456
804.344	0.285459
805.529	0.307212
806.714	0.326276
807.899	0.347642
809.084	0.368646
810.269	0.390059
811.453	0.410727
812.639	0.42889
813.824	0.445168
815.008	0.460938
816.194	0.475546
817.379	0.488285
818.563	0.500283
819.749	0.510735
820.933	0.518645
822.118	0.526145
823.304	0.532768
824.488	0.54042
825.674	0.549329
826.858	0.557998
828.043	0.568481
829.229	0.580304
830.413	0.594411
831.598	0.612785
832.784	0.632864
833.968	0.6554
835.153	0.679891
836.338	0.706089
837.523	0.732909
838.708	0.762625
839.893	0.793333
841.078	0.821961
842.263	0.848245
843.448	0.872269
844.633	0.894784
845.818	0.912917
847.003	0.927177
848.188	0.938513
849.373	0.946506
850.558	0.947803
851.743	0.946858
852.928	0.938767
854.113	0.9272
855.298	0.912566
856.483	0.895481
857.668	0.873405
858.853	0.84828
860.038	0.821068
861.223	0.791574
862.408	0.760675
863.593	0.728379
864.778	0.695202
865.963	0.661563
867.148	0.626569
868.333	0.591234
869.518	0.556238
870.703	0.521038
871.888	0.48834
873.073	0.456151
874.258	0.423225
875.443	0.391139
876.628	0.361597
877.813	0.333622
878.998	0.308159
880.183	0.286507
881.368	0.265145
882.553	0.248498
883.738	0.233895
884.923	0.221512
886.108	0.211134
887.293	0.203251
888.478	0.197809
889.663	0.194384
890.848	0.192766
892.033	0.192932
893.218	0.195396
894.403	0.200018
895.588	0.206155
896.773	0.214347
897.958	0.223128
899.143	0.230982
900.328	0.24155
901.513	0.251796
902.698	0.264197
903.883	0.274924
905.068	0.285218
906.253	0.295973
907.438	0.306259
908.623	0.316133
909.808	0.326342
910.993	0.335401
912.178	0.342792
913.363	0.348514
914.548	0.352651
915.733	0.354747
916.918	0.356318
918.103	0.356371
919.288	0.352777
920.473	0.346626
921.658	0.339152
922.843	0.330473
924.028	0.321107
925.213	0.309744
926.398	0.295554
927.583	0.279638
928.768	0.261329
929.953	0.243833
931.138	0.225088
932.323	0.20512
933.508	0.184294
934.693	0.162428
935.878	0.141925
937.063	0.121453
938.248	0.104993
939.433	0.086368
940.618	0.0696933
941.803	0.0543503
942.988	0.0399399
944.173	0.0286578
945.358	0.019011
946.543	0.0116259
947.728	0.00485576
948.913	-0.00214887
950.098	-0.00685169
951.283	-0.00902769
952.468	-0.00898157
953.653	-0.00831345
954.838	-0.00678059
956.023	-0.00355893
957.208	5.30511e-005
958.393	0.00535803
959.578	0.0104536
960.763	0.0153601
961.948	0.0202935
963.133	0.0259218
964.318	0.0308605
965.503	0.0356777
966.688	0.0415493
967.873	0.0475798
969.058	0.0529081
970.243	0.0576765
971.428	0.0602177
972.613	0.062082
973.798	0.0625299
974.983	0.0620994
976.168	0.0611346
977.353	0.0590904
978.538	0.0566375
979.723	0.0539662
980.908	0.0489146
982.093	0.0442895
983.278	0.0408611
984.463	0.0374061
985.648	0.0340134
986.833	0.0316782
988.018	0.0295906
989.203	0.0276675
990.388	0.0267914
991.573	0.0265215
992.758	0.0267222
993.943	0.0265598
995.128	0.0272704
996.313	0.028589
997.498	0.0295009
998.683	0.0319141
999.868	0.0351882
1001.05	0.0376629
1002.24	0.039982
1003.42	0.0425655
1004.61	0.0442089
1005.79	0.0459874
1006.98	0.0492359
1008.16	0.0531455
1009.35	0.0570261
1010.53	0.0623694
1011.72	0.0689603
1012.9	0.0783397
1014.09	0.0869336
1015.27	0.0984092
1016.46	0.111294
1017.64	0.126121
1018.83	0.142844
1020.01	0.160817
1021.2	0.17893
1022.38	0.202031
1023.57	0.225714
1024.75	0.251128
1025.94	0.278339
1027.12	0.307907
1028.31	0.337497
1029.49	0.371198
1030.68	0.404199
1031.86	0.436393
1033.05	0.471283
1034.23	0.505191
1035.42	0.537339
1036.6	0.569105
1037.79	0.599094
1038.97	0.630095
1040.16	0.658892
1041.34	0.685092
1042.53	0.708616
1043.71	0.729337
1044.9	0.747589
1046.08	0.764275
1047.27	0.774625
1048.45	0.781466
1049.64	0.788043
1050.82	0.790271
1052.01	0.789792
1053.19	0.787601
1054.38	0.783398
1055.56	0.778749
1056.75	0.771518
1057.93	0.760582
1059.12	0.748867
1060.3	0.735548
1061.49	0.721005
1062.67	0.707569
1063.86	0.693327
1065.04	0.678357
1066.23	0.663875
1067.41	0.649394
1068.6	0.635559
1069.78	0.622051
1070.97	0.608631
1072.15	0.595316
1073.34	0.5823
1074.52	0.570573
1075.71	0.560548
1076.89	0.55189
1078.08	0.544336
1079.26	0.538268
1080.45	0.532263
1081.63	0.526054
1082.82	0.520595
1084	0.517658
1085.19	0.515656
1086.37	0.512699
1087.56	0.510498
1088.74	0.509978
1089.93	0.508741
1091.11	0.507993
1092.3	0.507901
1093.48	0.509517
1094.67	0.510628
1095.85	0.510217
1097.04	0.51086
1098.22	0.511015
1099.41	0.511102
1100.59	0.512902
1101.78	0.512855
1102.96	0.511496
1104.15	0.510911
1105.33	0.509714
1106.52	0.506534
1107.7	0.503416
1108.89	0.498765
1110.07	0.491233
1111.26	0.48105
1112.44	0.46978
1113.63	0.456899
1114.81	0.442395
1116	0.42578
1117.18	0.409174
1118.37	0.390044
1119.55	0.369409
1120.74	0.346851
1121.92	0.324815
1123.11	0.30295
1124.29	0.280029
1125.48	0.258302
1126.66	0.236073
1127.85	0.214764
1129.03	0.194161
1130.22	0.174242
1131.4	0.15717
1132.59	0.140059
1133.77	0.12538
1134.96	0.11079
1136.14	0.097263
1137.33	0.0860704
1138.51	0.078162
1139.7	0.06911
1140.88	0.0598782
1142.07	0.0520985
1143.25	0.0448828
1144.44	0.0383911
1145.62	0.0333905
1146.81	0.0292263
1147.99	0.0244142
1149.18	0.0199215
1150.36	0.0188871
1151.55	0.0159175
1152.73	0.013151
1153.92	0.0110573
1155.1	0.00822125
1156.29	0.00440468
1157.47	0.00152769
1158.66	1.31099e-005
1159.84	-0.00220864
1161.03	-0.00327922
1162.21	-0.00366211
1163.4	-0.00393095
1164.58	-0.00344697
1165.77	-0.00206627
1166.95	-0.00115102
1168.14	-0.000745021
1169.32	0.00168097
1170.51	0.00385537
1171.69	0.00672081
1172.88	0.0112781
1174.06	0.0163213
1175.25	0.0224979
1176.43	0.0297259
1177.62	0.0372283
1178.8	0.0438818
1179.99	0.0518804
1181.17	0.0600655
1182.36	0.0692344
1183.54	0.0796916
1184.73	0.0893233
1185.91	0.0986988
1187.1	0.108083
1188.28	0.119338
1189.47	0.131376
1190.65	0.142139
1191.84	0.15464
1193.02	0.168074
1194.21	0.181448
1195.39	0.195661
1196.58	0.212294
1197.76	0.227425
1198.95	0.243052
1200.13	0.257501
1201.32	0.274528
1202.5	0.292358
1203.69	0.30973
1204.87	0.327176
1206.06	0.345451
1207.24	0.36498
1208.43	0.38569
1209.61	0.403055
1210.8	0.420338
1211.98	0.440253
1213.17	0.457907
1214.35	0.47574
1215.54	0.496006
1216.72	0.516165
1217.91	0.536417
1219.09	0.554551
1220.28	0.572888
1221.46	0.593961
1222.65	0.615994
1223.83	0.634982
1225.02	0.655729
1226.2	0.676324
1227.39	0.696903
1228.57	0.717359
1229.76	0.736287
1230.94	0.757645
1232.13	0.775052
1233.31	0.793969
1234.5	0.810946
1235.68	0.829199
1236.87	0.84662
1238.05	0.861928
1239.24	0.874988
1240.42	0.88797
1241.61	0.898655
1242.79	0.906617
1243.98	0.914777
1245.16	0.923
1246.35	0.930299
1247.53	0.935563
1248.72	0.941199
1249.9	0.945187
1251.09	0.947479
1252.27	0.948225
1253.46	0.947678
1254.64	0.946675
1255.83	0.945026
1257.01	0.94327
1258.2	0.94016
1259.38	0.93568
1260.57	0.930516
1261.75	0.924625
1262.94	0.91447
1264.12	0.90624
1265.31	0.896444
1266.49	0.885636
1267.68	0.872607
1268.86	0.859312
1270.05	0.845959
1271.23	0.830019
1272.42	0.816819
1273.6	0.801775
1274.79	0.784932
1275.97	0.768823
1277.16	0.75248
1278.34	0.736916
1279.53	0.722126
1280.71	0.707272
1281.9	0.690551
1283.08	0.673556
1284.27	0.655765
1285.45	0.63905
1286.64	0.623028
1287.82	0.607251
1289.01	0.591351
1290.19	0.57647
1291.38	0.561961
1292.56	0.547564
1293.75	0.534612
1294.93	0.522583
1296.12	0.510066
1297.3	0.497126
1298.49	0.486385
1299.67	0.476792
1300.86	0.469003
1302.04	0.461668
1303.23	0.4536
1304.41	0.447309
1305.6	0.441402
1306.78	0.433926
1307.97	0.425048
1309.15	0.418162
1310.34	0.409751
1311.52	0.403645
1312.71	0.396318
1313.89	0.388501
1315.08	0.380873
1316.26	0.373016
1317.45	0.364139
1318.63	0.355808
1319.82	0.349929
1321	0.34216
1322.19	0.333498
1323.37	0.326518
1324.56	0.320998
1325.74	0.315378
1326.93	0.310569
1328.11	0.305002
1329.3	0.298441
1330.48	0.292655
1331.67	0.288196
1332.85	0.281514
1334.04	0.276822
1335.22	0.27382
1336.41	0.268046
1337.59	0.261878
1338.78	0.258949
1339.96	0.253594
1341.15	0.250071
1342.33	0.24724
1343.52	0.24391
1344.7	0.23985
1345.89	0.233592
1347.07	0.229018
1348.26	0.226503
1349.44	0.224975
1350.63	0.222859
1351.81	0.218477
1353	0.21457
1354.18	0.211809
1355.37	0.208221
1356.55	0.205463
1357.74	0.202856
1358.92	0.197021
1360.11	0.192302
1361.29	0.188716
1362.48	0.188256
1363.66	0.189027
1364.85	0.185816
1366.03	0.182299
1367.22	0.17764
1368.4	0.174508
1369.59	0.172263
1370.77	0.169955
1371.96	0.166506
1373.14	0.163758
1374.33	0.160904
1375.51	0.158813
1376.7	0.156971
1377.88	0.155019
1379.07	0.151207
1380.25	0.149128
1381.44	0.14612
1382.62	0.143534
1383.81	0.142779
1384.99	0.140594
1386.18	0.13832
1387.36	0.135245
1388.55	0.134223
1389.73	0.134153
1390.92	0.132829
1392.1	0.131449
1393.29	0.12931
1394.47	0.126819
1395.66	0.125553
1396.84	0.124212
1398.03	0.123851
1399.21	0.122981
1400.4	0.121562
1401.58	0.123051
1402.77	0.123846
1403.95	0.125442
1405.14	0.127647
1406.32	0.127957
1407.51	0.12896
1408.69	0.129201
1409.88	0.129128
1411.06	0.130528
1412.25	0.130207
1413.43	0.130208
1414.62	0.130122
1415.8	0.131629
1416.99	0.132981
1418.17	0.13157
1419.36	0.132748
1420.54	0.134151
1421.73	0.132836
1422.91	0.132284
1424.1	0.131224
1425.28	0.131623
1426.47	0.135883
1427.65	0.137117
1428.84	0.141111
1430.02	0.146033
1431.21	0.150425
1432.39	0.155033
1433.58	0.161981
1434.76	0.17113
1435.95	0.180461
1437.13	0.190412
1438.32	0.204429
1439.5	0.219416
1440.69	0.237409
1441.87	0.256231
1443.06	0.276038
1444.24	0.300065
1445.43	0.322211
1446.61	0.346251
1447.8	0.371645
1448.98	0.396796
1450.17	0.422004
1451.35	0.446702
1452.54	0.469957
1453.72	0.49282
1454.91	0.513902
1456.09	0.531698
1457.28	0.546842
1458.46	0.558715
1459.65	0.566189
1460.83	0.570339
1462.02	0.574051
1463.2	0.572102
1464.39	0.563681
1465.57	0.55486
1466.76	0.542649
1467.94	0.525772
1469.13	0.50753
1470.31	0.485685
1471.5	0.460585
1472.68	0.435373
1473.87	0.409322
1475.05	0.383057
1476.24	0.355668
1477.42	0.327369
1478.61	0.299366
1479.79	0.271836
1480.98	0.248688
1482.16	0.224247
1483.35	0.201802
1484.53	0.181671
1485.72	0.162651
1486.9	0.146948
1488.09	0.132964
1489.27	0.119837
1490.46	0.108238
1491.64	0.0979091
1492.83	0.0907388
1494.01	0.0852426
1495.2	0.0810551
1496.38	0.0784514
1497.57	0.0753236
1498.75	0.072741
1499.94	0.0709348
1501.12	0.0706948
1502.31	0.0698812
1503.49	0.0680238
1504.68	0.0674163
1505.86	0.0680907
1507.05	0.0676095
1508.23	0.0684387
1509.42	0.0694122
1510.6	0.0709183
1511.79	0.0721419
1512.97	0.0727947
1514.16	0.0735976
1515.34	0.0753932
1516.53	0.0762275
1517.71	0.0776763
1518.9	0.0792509
1520.08	0.0806702
1521.27	0.0814995
1522.45	0.0828741
1523.64	0.0846887
1524.82	0.0853054
1526.01	0.0844478
1527.19	0.0834526
1528.38	0.0819383
1529.56	0.0804878
1530.75	0.0809374
1531.93	0.0806213
1533.12	0.0798813
1534.3	0.0786033
1535.49	0.0775659
1536.67	0.0769023
1537.86	0.076541
1539.04	0.0752989
1540.23	0.0746302
1541.41	0.0747628
1542.6	0.0749642
1543.78	0.0743158
1544.97	0.0740937
1546.15	0.0733294
1547.34	0.071777
1548.52	0.0710594
1549.71	0.0689689
1550.89	0.067872
1552.08	0.0669257
1553.26	0.0660999
1554.45	0.0635452
1555.63	0.0622805
1556.82	0.0604016
1558	0.0581963
1559.19	0.0566834
1560.37	0.0550723
1561.56	0.0538871
1562.74	0.0533402
1563.93	0.0522477
1565.11	0.0505726
1566.3	0.0500289
1567.48	0.0490482
1568.67	0.0478849
1569.85	0.0474921
1571.04	0.0471729
1572.22	0.0456395
1573.41	0.0453759
1574.59	0.0440198
1575.78	0.0426437
1576.96	0.0426791
1578.15	0.0420624
1579.33	0.0400967
1580.52	0.039401
1581.7	0.0384186
1582.89	0.03708
1584.07	0.0360273
1585.26	0.0346566
1586.44	0.0333792
1587.63	0.0325472
1588.81	0.0320712
1590	0.0303045
1591.18	0.0295656
1592.37	0.0289797
1593.55	0.0275783
1594.74	0.0272181
1595.92	0.0264772
1597.11	0.0251682
1598.29	0.0240377
1599.48	0.0233254
1600.66	0.0214944
1601.85	0.0207194
1603.03	0.0197449
1604.22	0.0183797
1605.4	0.0170986
1606.59	0.0163463
1607.77	0.0149026
1608.96	0.0137099
1610.14	0.012206
1611.33	0.0104406
1612.51	0.00966805
1613.7	0.00870482
1614.88	0.00831422
1616.07	0.00747851
1617.25	0.0066876
1618.44	0.00560642
1619.62	0.00476755
1620.81	0.00428473
1621.99	0.00348815
1623.18	0.00185721
1624.36	0.00150037
1625.55	0.000692857
1626.73	-4.94914e-005
1627.92	-0.00109259
1629.1	-0.00230538
1630.29	-0.00346986
1631.47	-0.00364461
1632.66	-0.00399214
1633.84	-0.00401775
1635.03	-0.00287637
1636.21	-0.00249976
1637.4	-0.000911721
1638.58	0.000109345
1639.77	0.00102351
1640.95	0.00154815
1642.14	0.00216906
1643.32	0.0035594
1644.51	0.005501
1645.69	0.00781867
1646.88	0.008919
1648.06	0.0112068
1649.25	0.0132396
1650.43	0.0141003
1651.62	0.0146086
1652.8	0.0160787
1653.99	0.0177826
1655.17	0.0194742
1656.36	0.0216489
1657.54	0.0245336
1658.73	0.0275445
1659.91	0.0291709
1661.1	0.0301331
1662.28	0.0295014
1663.47	0.030895
1664.65	0.0323322
1665.84	0.0331743
1667.02	0.0349356
1668.21	0.0364829
1669.39	0.0367212
1670.58	0.0372035
1671.76	0.0368899
1672.95	0.0372769
1674.13	0.0372935
1675.32	0.0375046
1676.5	0.0398437
1677.69	0.0421863
1678.87	0.0436697
1680.06	0.0443081
1681.24	0.0458275
1682.43	0.0463521
1683.61	0.0457607
1684.8	0.0457867
1685.98	0.0471716
1687.17	0.0486657
1688.35	0.0515309
1689.54	0.0529166
1690.72	0.0536532
1691.91	0.0539046
1693.09	0.0537127
1694.28	0.0547202
1695.46	0.0565192
1696.65	0.056535
1697.83	0.0572051
1699.02	0.0587015
1700.2	0.0610757
1701.39	0.0623288
1702.57	0.0634299
1703.76	0.0634476
1704.94	0.0632856
1706.13	0.063957
1707.31	0.064861
1708.5	0.0655031
1709.68	0.0661709
1710.87	0.0660521
1712.05	0.0662858
1713.24	0.0666797
1714.42	0.0672943
1715.61	0.0669171
1716.79	0.0665399
1717.98	0.0667203
1719.16	0.0665578
1720.35	0.0663357
1721.53	0.0662407
1722.72	0.0662519
1723.9	0.0661184
1725.09	0.0656311
1726.27	0.0639924
1727.46	0.0637417
1728.64	0.0626901
1729.83	0.0616015
1731.01	0.0611411
1732.2	0.0608026
1733.38	0.0600716
1734.57	0.0595853
1735.75	0.0590123
1736.94	0.0582745
1738.12	0.0572132
1739.31	0.0563454
1740.49	0.0550924
1741.68	0.0548223
1742.86	0.0550464
1744.05	0.0541477
1745.23	0.0540426
1746.42	0.0538235
1747.6	0.0533824
1748.79	0.0534715
1749.97	0.0523746
1751.16	0.0512272
1752.34	0.0508001
1753.53	0.0499384
1754.71	0.0491404
1755.9	0.0477497
1757.08	0.0464595
1758.27	0.044279
1759.45	0.0432281
1760.64	0.0419492
1761.82	0.0405868
1763.01	0.0385185
1764.19	0.0362829
1765.38	0.0350849
1766.56	0.0338983
1767.74	0.0328334
1768.93	0.0307793
1770.12	0.0298039
1771.3	0.0291477
1772.49	0.0290259
1773.67	0.0284636
1774.85	0.0272185
1776.04	0.0253726
1777.23	0.0225646
1778.41	0.0211874
1779.6	0.0205411
1780.78	0.0195148
1781.97	0.0174015
1783.15	0.0152228
1784.34	0.0142311
1785.52	0.0124858
1786.7	0.00990176
1787.89	0.00742529
1789.08	0.00476673
1790.26	0.00292004
1791.45	0.00085833
1792.63	-0.000868849
1793.81	-0.00335567
1795	-0.00618303
