405	0.110127
406.185	0.129311
407.37	0.149894
408.555	0.168761
409.74	0.186848
410.925	0.202347
412.11	0.214058
413.295	0.222733
414.48	0.221255
415.665	0.219009
416.85	0.220777
418.035	0.225621
419.22	0.232043
420.405	0.227195
421.59	0.213509
422.775	0.210356
423.96	0.209308
425.145	0.190451
426.33	0.170927
427.515	0.160799
428.7	0.142526
429.885	0.120474
431.07	0.103694
432.255	0.091141
433.44	0.0767331
434.625	0.0713498
435.81	0.0639301
436.995	0.0496918
438.18	0.0398246
439.365	0.0279348
440.55	0.0170665
441.735	0.0119872
442.92	0.00474611
444.105	-0.00422258
445.29	-0.00405384
446.475	-0.00201096
447.66	-0.0097536
448.845	-0.00907645
450.03	-0.00235715
451.215	0.00402988
452.4	0.0139508
453.585	0.0302583
454.77	0.0399988
455.955	0.0567606
457.14	0.0794007
458.325	0.0924315
459.51	0.10689
460.695	0.128351
461.88	0.153836
463.065	0.18155
464.25	0.210307
465.435	0.244432
466.62	0.275518
467.805	0.31506
468.99	0.357665
470.175	0.402714
471.36	0.445762
472.545	0.481154
473.73	0.512311
474.915	0.550611
476.1	0.589605
477.285	0.620008
478.47	0.652205
479.655	0.685553
480.84	0.710149
482.025	0.730211
483.21	0.753596
484.395	0.768514
485.58	0.77546
486.765	0.781701
487.95	0.784977
489.135	0.782701
490.32	0.764842
491.505	0.742097
492.69	0.723759
493.875	0.705819
495.06	0.681371
496.245	0.652655
497.43	0.62729
498.615	0.600047
499.8	0.567176
500.985	0.532991
502.17	0.500037
503.355	0.468284
504.54	0.438094
505.725	0.410322
506.91	0.379595
508.095	0.347274
509.28	0.327082
510.465	0.309624
511.65	0.293201
512.835	0.273548
514.02	0.252592
515.205	0.234031
516.39	0.218009
517.575	0.206241
518.76	0.195776
519.945	0.185031
521.13	0.185066
522.315	0.177501
523.5	0.17092
524.685	0.164421
525.87	0.16154
527.055	0.166621
528.24	0.165497
529.425	0.161388
530.61	0.16152
531.795	0.154207
532.98	0.157958
534.164	0.166705
535.35	0.177019
536.535	0.183618
537.719	0.18442
538.905	0.185924
540.09	0.194553
541.274	0.197881
542.46	0.20495
543.644	0.206979
544.829	0.210463
546.015	0.213657
547.199	0.216969
548.385	0.216746
549.569	0.213502
550.754	0.217152
551.94	0.226967
553.124	0.221732
554.309	0.213628
555.495	0.208442
556.679	0.205941
557.864	0.20336
559.049	0.189569
560.234	0.171285
561.419	0.163063
562.604	0.162251
563.789	0.159277
564.974	0.160767
566.159	0.14998
567.344	0.139747
568.529	0.134543
569.714	0.129454
570.899	0.121452
572.084	0.110958
573.269	0.101717
574.454	0.0960609
575.639	0.0898734
576.824	0.0919662
578.009	0.091514
579.194	0.106274
580.379	0.112447
581.564	0.104301
582.749	0.0998476
583.934	0.100316
585.119	0.101143
586.304	0.102446
587.489	0.0990122
588.674	0.0972663
589.859	0.0910307
591.044	0.0929092
592.229	0.0997782
593.414	0.106471
594.599	0.110171
595.784	0.107815
596.969	0.104357
598.154	0.100535
599.339	0.0923927
600.524	0.0929941
601.709	0.0931873
602.894	0.0879309
604.079	0.0848221
605.264	0.0844117
606.449	0.0854475
607.634	0.0819711
608.819	0.0810855
610.004	0.0816424
611.189	0.0792516
612.374	0.0794247
613.559	0.0774626
614.744	0.0727234
615.929	0.0765691
617.114	0.0757285
618.299	0.07826
619.484	0.0809766
620.669	0.081781
621.854	0.0813021
623.039	0.0782001
624.224	0.0729045
625.409	0.0708356
626.594	0.0746809
627.779	0.0827126
628.964	0.0860305
630.149	0.0806581
631.334	0.0772932
632.519	0.0708396
633.704	0.072748
634.889	0.0731907
636.074	0.0706977
637.259	0.0702636
638.444	0.0686725
639.629	0.0656986
640.814	0.0710441
641.999	0.069074
643.184	0.0825434
644.369	0.0838395
645.554	0.0897625
646.739	0.0908971
647.924	0.0918904
649.109	0.103429
650.294	0.113146
651.479	0.115511
652.664	0.125969
653.849	0.1338
655.034	0.141146
656.219	0.152846
657.404	0.162366
658.589	0.171724
659.774	0.17935
660.959	0.194485
662.144	0.199009
663.329	0.20183
664.514	0.204754
665.699	0.204544
666.884	0.211082
668.069	0.21419
669.254	0.2067
670.439	0.219816
671.624	0.228044
672.809	0.21756
673.994	0.216279
675.179	0.213352
676.364	0.214546
677.549	0.215227
678.734	0.20984
679.919	0.200015
681.104	0.189926
682.289	0.181226
683.474	0.171254
684.659	0.168688
685.844	0.157316
687.029	0.146179
688.214	0.136058
689.399	0.120669
690.584	0.104651
691.769	0.0983142
692.954	0.0940466
694.139	0.0864098
695.324	0.0760349
696.509	0.0623278
697.694	0.0525435
698.879	0.0490339
700.064	0.0323303
701.249	0.0304725
702.434	0.026023
703.619	0.0243519
704.804	0.0224774
705.989	0.0207594
707.174	0.0217729
708.359	0.0213591
709.544	0.0183664
710.729	0.0171468
711.914	0.0160606
713.099	0.0101115
714.284	0.00959509
715.469	0.00768516
716.654	0.015228
717.839	0.0105739
719.024	0.0203173
720.209	0.0221195
721.394	0.0212059
722.579	0.017181
723.764	0.0121259
724.949	0.00710375
726.134	0.00315021
727.319	0.0018857
728.504	0.00210014
729.689	-0.000693476
730.874	-0.00847413
732.059	-0.00559973
733.244	-0.00772183
734.429	-0.00395998
735.614	-0.00366993
736.799	-0.00323023
737.984	-0.00447012
739.169	-0.00739704
740.354	-0.00325967
741.539	0.00439583
742.724	0.00884426
743.909	0.00953126
745.094	0.00764153
746.279	0.00542053
747.464	0.00541349
748.649	0.0094247
749.834	0.0175009
751.019	0.0165394
752.204	0.0138962
753.389	0.00968739
754.574	0.0032198
755.759	0.00209548
756.944	-0.000360519
758.129	0.00460569
759.314	0.00731782
760.499	0.000101216
761.684	-0.00456037
762.869	-6.85474e-005
764.054	0.00517679
765.239	0.00564788
766.424	0.00714052
767.609	0.00683004
768.794	0.00120878
769.979	-0.00330284
771.164	-0.00197916
772.349	0.00143278
773.534	0.00817089
774.719	0.0135103
775.904	0.0195061
777.089	0.0199578
778.274	0.0179681
779.459	0.0216417
780.644	0.0244736
781.829	0.0202315
783.014	0.0192519
784.199	0.0210109
785.384	0.0262367
786.569	0.027529
787.754	0.0339358
788.939	0.0403575
790.124	0.0378899
791.309	0.0381404
792.494	0.0386683
793.679	0.0409891
794.864	0.0446303
796.049	0.049136
797.234	0.0552402
798.419	0.06411
799.604	0.0776708
800.789	0.0928812
801.974	0.106001
803.159	0.12754
804.344	0.142551
805.529	0.156672
806.714	0.180564
807.899	0.197125
809.084	0.227667
810.269	0.257145
811.454	0.28851
812.639	0.315086
813.823	0.33865
815.009	0.358945
816.194	0.38099
817.378	0.399556
818.564	0.411964
819.748	0.425609
820.933	0.438576
822.119	0.447137
823.303	0.464019
824.488	0.479022
825.674	0.480949
826.858	0.499272
828.044	0.508312
829.228	0.513339
830.413	0.515894
831.599	0.524315
832.783	0.53667
833.968	0.5617
835.153	0.583411
836.338	0.608602
837.523	0.645608
838.708	0.679815
839.893	0.71225
841.078	0.746438
842.263	0.776356
843.448	0.808086
844.633	0.839747
845.818	0.860498
847.003	0.8828
848.188	0.90244
849.373	0.921012
850.558	0.937252
851.743	0.948225
852.928	0.939058
854.113	0.927533
855.298	0.910815
856.483	0.883917
857.668	0.863454
858.853	0.842461
860.038	0.81337
861.223	0.781364
862.408	0.748973
863.593	0.712743
864.778	0.674178
865.963	0.633605
867.148	0.592029
868.333	0.555595
869.518	0.517042
870.703	0.48283
871.888	0.454441
873.073	0.423211
874.258	0.393637
875.443	0.365712
876.628	0.339162
877.813	0.308921
878.998	0.28824
880.183	0.261129
881.368	0.234578
882.553	0.223417
883.738	0.211075
884.923	0.200831
886.108	0.188216
887.293	0.174524
888.478	0.166561
889.663	0.157394
890.848	0.149205
892.033	0.148653
893.218	0.148267
894.403	0.147111
895.588	0.147211
896.773	0.151609
897.958	0.154101
899.143	0.162796
900.328	0.168186
901.513	0.173915
902.698	0.175183
903.883	0.189362
905.068	0.197466
906.253	0.212598
907.438	0.222177
908.623	0.233887
909.808	0.246287
910.993	0.258235
912.178	0.272536
913.363	0.288589
914.548	0.298423
915.733	0.307701
916.918	0.317894
918.103	0.326153
919.288	0.330741
920.473	0.33635
921.658	0.34172
922.843	0.341774
924.028	0.342623
925.213	0.336928
926.398	0.327953
927.583	0.319567
928.768	0.306015
929.953	0.294498
931.138	0.269175
932.323	0.242959
933.508	0.21856
934.693	0.191564
935.878	0.169215
937.063	0.154677
938.248	0.134902
939.433	0.110725
940.618	0.0927263
941.803	0.0720719
942.988	0.0533604
944.173	0.0414672
945.358	0.0355109
946.543	0.0291807
947.728	0.0199096
948.913	0.0182189
950.098	0.0210722
951.283	0.0228258
952.468	0.0244355
953.653	0.0239354
954.838	0.0212388
956.023	0.021191
957.208	0.0257573
958.393	0.0328677
959.578	0.0399269
960.763	0.0462501
961.948	0.051864
963.133	0.0515961
964.318	0.0540879
965.503	0.0580999
966.688	0.0668103
967.873	0.0685545
969.058	0.0671214
970.243	0.0704027
971.428	0.0780929
972.613	0.083916
973.798	0.0903294
974.983	0.0935727
976.168	0.0988685
977.353	0.0977689
978.538	0.088391
979.723	0.0857242
980.908	0.0852353
982.093	0.0836549
983.278	0.0838381
984.463	0.0742504
985.648	0.0685194
986.833	0.0686103
988.018	0.0678081
989.203	0.0658301
990.388	0.0671464
991.573	0.0664023
992.758	0.065927
993.943	0.0650518
995.128	0.0645534
996.313	0.0713953
997.498	0.077175
998.683	0.078641
999.868	0.0825521
1001.05	0.0845527
1002.24	0.0882039
1003.42	0.0945829
1004.61	0.0962645
1005.79	0.0978566
1006.98	0.101116
1008.16	0.104019
1009.35	0.104339
1010.53	0.111647
1011.72	0.113852
1012.9	0.124595
1014.09	0.129585
1015.27	0.13937
1016.46	0.14472
1017.64	0.147548
1018.83	0.154085
1020.01	0.161294
1021.2	0.173699
1022.38	0.195496
1023.57	0.228703
1024.75	0.258202
1025.94	0.276892
1027.12	0.308724
1028.31	0.329001
1029.49	0.358393
1030.68	0.385749
1031.86	0.414541
1033.05	0.442815
1034.23	0.481469
1035.42	0.51995
1036.6	0.555571
1037.79	0.593191
1038.97	0.632463
1040.16	0.661012
1041.34	0.684033
1042.53	0.699365
1043.71	0.720474
1044.9	0.737327
1046.08	0.755279
1047.27	0.769598
1048.45	0.783924
1049.64	0.792868
1050.82	0.79422
1052.01	0.794146
1053.19	0.791317
1054.38	0.783917
1055.56	0.775475
1056.75	0.767642
1057.93	0.758495
1059.12	0.743231
1060.3	0.73181
1061.49	0.722056
1062.67	0.707203
1063.86	0.694072
1065.04	0.680369
1066.23	0.658858
1067.41	0.640269
1068.6	0.630325
1069.78	0.615063
1070.97	0.600291
1072.15	0.590601
1073.34	0.580804
1074.52	0.568068
1075.71	0.551901
1076.89	0.537492
1078.08	0.524
1079.26	0.511087
1080.45	0.501843
1081.63	0.491835
1082.82	0.482986
1084	0.48382
1085.19	0.481573
1086.37	0.474805
1087.56	0.470163
1088.74	0.463599
1089.93	0.458278
1091.11	0.44899
1092.3	0.442392
1093.48	0.441679
1094.67	0.448
1095.85	0.45105
1097.04	0.451817
1098.22	0.45412
1099.41	0.456764
1100.59	0.454193
1101.78	0.445491
1102.96	0.437034
1104.15	0.438949
1105.33	0.443034
1106.52	0.443141
1107.7	0.434716
1108.89	0.433039
1110.07	0.434829
1111.26	0.424397
1112.44	0.411696
1113.63	0.40364
1114.81	0.396851
1116	0.384603
1117.18	0.37416
1118.37	0.362351
1119.55	0.343714
1120.74	0.335062
1121.92	0.309389
1123.11	0.283629
1124.29	0.260848
1125.48	0.247242
1126.66	0.232064
1127.85	0.205898
1129.03	0.187657
1130.22	0.167636
1131.4	0.147853
1132.59	0.125706
1133.77	0.110764
1134.96	0.0935625
1136.14	0.0791021
1137.33	0.0696805
1138.51	0.0519238
1139.7	0.0449928
1140.88	0.0393466
1142.07	0.0328366
1143.25	0.0218389
1144.44	0.0167277
1145.62	0.0138607
1146.81	0.0059117
1147.99	0.00409412
1149.18	0.0006981
1150.36	0.0016807
1151.55	0.000104576
1152.73	-0.00300771
1153.92	-0.00511465
1155.1	-0.00798798
1156.29	-0.00449569
1157.47	0.000813391
1158.66	0.00191284
1159.84	-0.000107427
1161.03	-0.000682906
1162.21	-0.00280547
1163.4	-0.00446523
1164.58	-0.000730198
1165.77	0.00259029
1166.95	0.00414216
1168.14	0.00294986
1169.32	0.00320352
1170.51	0.00464084
1171.69	0.00788665
1172.88	0.0142992
1174.06	0.0157648
1175.25	0.0175436
1176.43	0.0183799
1177.62	0.0212812
1178.8	0.0274353
1179.99	0.0333324
1181.17	0.0460241
1182.36	0.0538658
1183.54	0.0557749
1184.73	0.0597075
1185.91	0.0660372
1187.1	0.0682174
1188.28	0.0685413
1189.47	0.069132
1190.65	0.0716443
1191.84	0.0726768
1193.02	0.0675125
1194.21	0.0732457
1195.39	0.0839857
1196.58	0.0903326
1197.76	0.0922355
1198.95	0.093208
1200.13	0.0892806
1201.32	0.0929923
1202.5	0.0955898
1203.69	0.0993675
1204.87	0.101183
1206.06	0.103405
1207.24	0.108088
1208.43	0.112262
1209.61	0.123389
1210.8	0.131039
1211.98	0.136955
1213.17	0.130812
1214.35	0.134913
1215.54	0.134441
1216.72	0.129337
1217.91	0.138691
1219.09	0.140563
1220.28	0.149617
1221.46	0.152158
1222.65	0.161863
1223.83	0.169923
1225.02	0.171831
1226.2	0.178022
1227.39	0.182531
1228.57	0.183318
1229.76	0.188388
1230.94	0.194228
1232.13	0.201567
1233.31	0.216368
1234.5	0.225798
1235.68	0.22818
1236.87	0.231679
1238.05	0.235867
1239.24	0.233411
1240.42	0.237405
1241.61	0.249532
1242.79	0.258009
1243.98	0.263801
1245.16	0.273
1246.35	0.283872
1247.53	0.297616
1248.72	0.310619
1249.9	0.31467
1251.09	0.322408
1252.27	0.335896
1253.46	0.343838
1254.64	0.348788
1255.83	0.356684
1257.01	0.357334
1258.2	0.356418
1259.38	0.363688
1260.57	0.364592
1261.75	0.365403
1262.94	0.358567
1264.12	0.34835
1265.31	0.338706
1266.49	0.329174
1267.68	0.334256
1268.86	0.321658
1270.05	0.308261
1271.23	0.298707
1272.42	0.293924
1273.6	0.290043
1274.79	0.297663
1275.97	0.29594
1277.16	0.285802
1278.34	0.279025
1279.53	0.271946
1280.71	0.283838
1281.9	0.280592
1283.08	0.277202
1284.27	0.272057
1285.45	0.261926
1286.64	0.261775
1287.82	0.269754
1289.01	0.271847
1290.19	0.274036
1291.38	0.279192
1292.56	0.274951
1293.75	0.27467
1294.93	0.271173
1296.12	0.27357
1297.3	0.263868
1298.49	0.263807
1299.67	0.266409
1300.86	0.269056
1302.04	0.265722
1303.23	0.273722
1304.41	0.274472
1305.6	0.271671
1306.78	0.279495
1307.97	0.272433
1309.15	0.267087
1310.34	0.27024
1311.52	0.271176
1312.71	0.276035
1313.89	0.27264
1315.08	0.265414
1316.26	0.266828
1317.45	0.264394
1318.63	0.266981
1319.82	0.260841
1321	0.249095
1322.19	0.251314
1323.37	0.248028
1324.56	0.241657
1325.74	0.243573
1326.93	0.236782
1328.11	0.236655
1329.3	0.237688
1330.48	0.233146
1331.67	0.246311
1332.85	0.234327
1334.04	0.236855
1335.22	0.231967
1336.41	0.228728
1337.59	0.247499
1338.78	0.251293
1339.96	0.24969
1341.15	0.252759
1342.33	0.252806
1343.52	0.252492
1344.7	0.253624
1345.89	0.246982
1347.07	0.249099
1348.26	0.253096
1349.44	0.258517
1350.63	0.255753
1351.81	0.256131
1353	0.257853
1354.18	0.252487
1355.37	0.249913
1356.55	0.249841
1357.74	0.247148
1358.92	0.244664
1360.11	0.234862
1361.29	0.229857
1362.48	0.231687
1363.66	0.229693
1364.85	0.224327
1366.03	0.213406
1367.22	0.215239
1368.4	0.210422
1369.59	0.20674
1370.77	0.20432
1371.96	0.201142
1373.14	0.200934
1374.33	0.198109
1375.51	0.198
1376.7	0.206308
1377.88	0.206809
1379.07	0.204225
1380.25	0.201827
1381.44	0.194664
1382.62	0.199493
1383.81	0.195918
1384.99	0.203947
1386.18	0.200165
1387.36	0.193726
1388.55	0.196079
1389.73	0.193188
1390.92	0.190379
1392.1	0.191411
1393.29	0.187853
1394.47	0.18367
1395.66	0.183146
1396.84	0.178912
1398.03	0.182293
1399.21	0.18367
1400.4	0.182819
1401.58	0.175884
1402.77	0.168563
1403.95	0.16946
1405.14	0.17661
1406.32	0.17391
1407.51	0.172026
1408.69	0.169636
1409.88	0.160208
1411.06	0.162333
1412.25	0.159926
1413.43	0.161689
1414.62	0.156664
1415.8	0.152525
1416.99	0.148949
1418.17	0.150207
1419.36	0.15464
1420.54	0.160542
1421.73	0.160071
1422.91	0.153198
1424.1	0.147962
1425.28	0.151174
1426.47	0.156669
1427.65	0.152476
1428.84	0.154832
1430.02	0.153479
1431.21	0.156427
1432.39	0.164016
1433.58	0.167801
1434.76	0.171732
1435.95	0.177396
1437.13	0.179665
1438.32	0.179027
1439.5	0.186633
1440.69	0.195893
1441.87	0.208175
1443.06	0.221774
1444.24	0.234164
1445.43	0.246653
1446.61	0.273279
1447.8	0.298074
1448.98	0.318364
1450.17	0.343048
1451.35	0.362365
1452.54	0.378074
1453.72	0.396057
1454.91	0.417427
1456.09	0.437762
1457.28	0.455578
1458.46	0.458809
1459.65	0.470294
1460.83	0.486514
1462.02	0.496133
1463.2	0.4852
1464.39	0.486062
1465.57	0.484138
1466.76	0.471527
1467.94	0.462106
1469.13	0.454755
1470.31	0.443898
1471.5	0.426395
1472.68	0.404175
1473.87	0.383987
1475.05	0.367083
1476.24	0.341309
1477.42	0.31408
1478.61	0.275842
1479.79	0.259866
1480.98	0.230841
1482.16	0.20198
1483.35	0.172919
1484.53	0.151543
1485.72	0.136863
1486.9	0.123947
1488.09	0.106951
1489.27	0.0946511
1490.46	0.0829599
1491.64	0.079111
1492.83	0.0722464
1494.01	0.0655535
1495.2	0.0730795
1496.38	0.0640019
1497.57	0.0593174
1498.75	0.055958
1499.94	0.06655
1501.12	0.0680844
1502.31	0.0609353
1503.49	0.0583447
1504.68	0.0614048
1505.86	0.0603679
1507.05	0.0568267
1508.23	0.0480302
1509.42	0.0549914
1510.6	0.058941
1511.79	0.0524226
1512.97	0.055121
1514.16	0.0617168
1515.34	0.0595752
1516.53	0.0498733
1517.71	0.0439069
1518.9	0.0427717
1520.08	0.0356478
1521.27	0.0365088
1522.45	0.036348
1523.64	0.0418888
1524.82	0.0324114
1526.01	0.0195702
1527.19	0.0191072
1528.38	0.0212606
1529.56	0.0149663
1530.75	0.00748834
1531.93	0.00878702
1533.12	0.0182615
1534.3	0.020062
1535.49	0.0234939
1536.67	0.022738
1537.86	0.0141348
1539.04	0.0145465
1540.23	0.00726678
1541.41	0.00406998
1542.6	0.00363657
1543.78	-0.000957794
1544.97	-0.00404573
1546.15	-0.00452957
1547.34	-0.00151961
1548.52	-0.00197386
1549.71	-0.0103762
1550.89	-0.00209154
1552.08	-0.0105657
1553.26	-0.0102054
1554.45	-0.00681891
1555.63	-0.00532141
1556.82	0.00175605
1558	0.00830478
1559.19	0.00767051
1560.37	0.0113598
1561.56	0.0152901
1562.74	0.015174
1563.93	0.0146638
1565.11	0.00985168
1566.3	0.0134738
1567.48	0.00774462
1568.67	0.00979729
1569.85	0.00827509
1571.04	0.00557322
1572.22	0.00459772
1573.41	0.00546066
1574.59	0.00604465
1575.78	0.00821134
1576.96	0.00411847
1578.15	0.00153115
1579.33	0.000172725
1580.52	0.00165293
1581.7	1.79206e-005
1582.89	-0.0031519
1584.07	-0.00132271
1585.26	-0.000183955
1586.44	0.00188937
1587.63	0.000494946
1588.81	-0.0016976
1590	-0.0028635
1591.18	-0.00170654
1592.37	0.000791909
1593.55	0.00488268
1594.74	0.00711286
1595.92	0.0117321
1597.11	0.0159385
1598.29	0.0174104
1599.48	0.0187719
1600.66	0.0179911
1601.85	0.0179662
1603.03	0.0173805
1604.22	0.0216366
1605.4	0.0247157
1606.59	0.0318998
1607.77	0.0379913
1608.96	0.0379101
1610.14	0.0364882
1611.33	0.0360905
1612.51	0.0295963
1613.7	0.0294314
1614.88	0.0334584
1616.07	0.0342101
1617.25	0.0378851
1618.44	0.0417866
1619.62	0.0395981
1620.81	0.0369161
1621.99	0.0315599
1623.18	0.0254776
1624.36	0.0177206
1625.55	0.0182894
1626.73	0.0169135
1627.92	0.0144004
1629.1	0.0145336
1630.29	0.012499
1631.47	0.00845183
1632.66	0.00790303
1633.84	0.00803277
1635.03	0.00629304
1636.21	0.00720333
1637.4	0.0116591
1638.58	0.00653777
1639.77	0.0155624
1640.95	0.0136547
1642.14	0.0155776
1643.32	0.0225828
1644.51	0.0266839
1645.69	0.0285236
1646.88	0.0325719
1648.06	0.034915
1649.25	0.0342188
1650.43	0.0397051
1651.62	0.0386357
1652.8	0.0391313
1653.99	0.0430978
1655.17	0.0465118
1656.36	0.0487677
1657.54	0.0542784
1658.73	0.0544822
1659.91	0.0441733
1661.1	0.0374059
1662.28	0.0402517
1663.47	0.0397397
1664.65	0.0407223
1665.84	0.0381297
1667.02	0.0348342
1668.21	0.0380785
1669.39	0.0373708
1670.58	0.0313572
1671.76	0.0229909
1672.95	0.0168174
1674.13	0.0163692
1675.32	0.0200934
1676.5	0.0268124
1677.69	0.0251808
1678.87	0.0226443
1680.06	0.0199816
1681.24	0.0150792
1682.43	0.016691
1683.61	0.0197731
1684.8	0.0179549
1685.98	0.0123776
1687.17	0.0206766
1688.35	0.026145
1689.54	0.0243754
1690.72	0.0205258
1691.91	0.0139527
1693.09	0.0140457
1694.28	0.0108564
1695.46	0.00918449
1696.65	0.00909559
1697.83	0.0134459
1699.02	0.0081492
1700.2	0.00208628
1701.39	0.00271924
1702.57	0.00387728
1703.76	-0.00161713
1704.94	-0.00137806
1706.13	0.00493001
1707.31	0.00434098
1708.5	0.0072132
1709.68	0.00600714
1710.87	0.0085017
1712.05	0.00561199
1713.24	0.00596151
1714.42	0.00792176
1715.61	0.0115192
1716.79	0.0107019
1717.98	0.00906777
1719.16	0.0115594
1720.35	0.0146797
1721.53	0.0134209
1722.72	0.00795766
1723.9	0.00806467
1725.09	0.00916244
1726.27	0.00653564
1727.46	0.010261
1728.64	0.010231
1729.83	0.00640446
1731.01	0.00484415
1732.2	0.00645853
1733.38	0.00607695
1734.57	0.0033916
1735.75	0.00448902
1736.94	0.00057175
1738.12	0.0056137
1739.31	0.00293555
1740.49	0.00157927
1741.68	0.002744
1742.86	-0.000606382
1744.05	-0.0014336
1745.23	-0.0027565
1746.42	-0.00336338
1747.6	-0.00354542
1748.79	-0.00518181
1749.97	-0.000997256
1751.16	-0.00426303
1752.34	-0.00638511
1753.53	-0.0105006
1754.71	-0.00856106
1755.9	-0.00666211
1757.08	-0.00830675
1758.27	-0.000668048
1759.45	0.00173159
1760.64	0.00415609
1761.82	0.00497917
1763.01	0.00680345
1764.19	0.00716859
1765.38	0.00487711
1766.56	0.00189716
1767.74	0.00322348
1768.93	0.00932988
1770.12	0.00930445
1771.3	0.00664037
1772.49	0.00562578
1773.67	0.00422194
1774.85	0.00309481
1776.04	-0.00485378
1777.23	-0.0026327
1778.41	-0.00174321
1779.6	-0.00319914
1780.78	-0.00218077
1781.97	0.000312825
1783.15	-0.00335756
1784.34	-0.00940377
1785.52	-0.00797594
1786.7	-0.00412018
1787.89	-0.00237254
1789.08	-0.00148428
1790.26	-0.0016446
1791.45	0.00154113
1792.63	0.00326494
1793.81	0.00228829
1795	0.00473738
