405	0.157912
406.185	0.16655
407.37	0.178615
408.555	0.188643
409.74	0.198323
410.925	0.20839
412.11	0.216175
413.295	0.219345
414.48	0.224905
415.665	0.228728
416.85	0.228113
418.035	0.225298
419.22	0.222081
420.405	0.216932
421.59	0.212427
422.775	0.212177
423.96	0.203003
425.145	0.184952
426.33	0.169498
427.515	0.1581
428.7	0.143208
429.885	0.124909
431.07	0.10768
432.255	0.0945901
433.44	0.0836123
434.625	0.0638827
435.81	0.0503044
436.995	0.0410214
438.18	0.0372824
439.365	0.0296327
440.55	0.0173266
441.735	0.00657992
442.92	-0.000459321
444.105	-0.00502665
445.29	0.0006353
446.475	0.00128085
447.66	-1.84494e-005
448.845	0.00142608
450.03	0.00749816
451.215	0.0120388
452.4	0.0108481
453.585	0.0177646
454.77	0.032164
455.955	0.0470091
457.14	0.0641154
458.325	0.0817938
459.51	0.106964
460.695	0.134347
461.88	0.157719
463.065	0.183566
464.25	0.216884
465.435	0.247438
466.62	0.278585
467.805	0.315442
468.99	0.355657
470.175	0.395862
471.36	0.438276
472.545	0.484569
473.73	0.527712
474.915	0.561613
476.1	0.597682
477.285	0.62484
478.47	0.656398
479.655	0.680351
480.84	0.700261
482.025	0.722093
483.21	0.742639
484.395	0.755601
485.58	0.767825
486.765	0.7669
487.95	0.76449
489.135	0.760105
490.32	0.751349
491.505	0.737273
492.69	0.71728
493.875	0.693951
495.06	0.674172
496.245	0.655619
497.43	0.628077
498.615	0.594709
499.8	0.568235
500.985	0.545746
502.17	0.519431
503.355	0.487677
504.54	0.453741
505.725	0.421006
506.91	0.398868
508.095	0.376936
509.28	0.349864
510.465	0.321723
511.65	0.297663
512.835	0.276191
514.02	0.258578
515.205	0.243629
516.39	0.226772
517.575	0.213837
518.76	0.198316
519.945	0.183135
521.13	0.1711
522.315	0.16213
523.5	0.156577
524.685	0.156904
525.87	0.159213
527.055	0.15629
528.24	0.14991
529.425	0.147135
530.61	0.149774
531.795	0.157368
532.98	0.159128
534.164	0.162797
535.35	0.164861
536.535	0.168012
537.719	0.178454
538.905	0.191521
540.09	0.193748
541.274	0.202542
542.46	0.205713
543.644	0.204904
544.829	0.19862
546.015	0.199574
547.199	0.205615
548.385	0.206686
549.569	0.202922
550.754	0.20216
551.94	0.195223
553.124	0.199004
554.309	0.19417
555.495	0.195124
556.679	0.190795
557.864	0.179902
559.049	0.176148
560.234	0.17382
561.419	0.165633
562.604	0.163215
563.789	0.157545
564.974	0.155622
566.159	0.152278
567.344	0.145525
568.529	0.150746
569.714	0.152986
570.899	0.15108
572.084	0.149338
573.269	0.146505
574.454	0.139553
575.639	0.133115
576.824	0.132785
578.009	0.135013
579.194	0.132843
580.379	0.136219
581.564	0.134699
582.749	0.13042
583.934	0.127476
585.119	0.12363
586.304	0.116142
587.489	0.109709
588.674	0.106847
589.859	0.102913
591.044	0.100079
592.229	0.0994621
593.414	0.103063
594.599	0.104378
595.784	0.100707
596.969	0.0972301
598.154	0.0965716
599.339	0.093584
600.524	0.0870101
601.709	0.0821989
602.894	0.0868372
604.079	0.0872803
605.264	0.0876677
606.449	0.0920404
607.634	0.087976
608.819	0.0811348
610.004	0.0778696
611.189	0.0750504
612.374	0.0699713
613.559	0.0622873
614.744	0.052832
615.929	0.0537296
617.114	0.0428103
618.299	0.041325
619.484	0.0387815
620.669	0.0343529
621.854	0.0281115
623.039	0.0232257
624.224	0.0210419
625.409	0.0181848
626.594	0.0174138
627.779	0.0220678
628.964	0.0190653
630.149	0.0215808
631.334	0.0182852
632.519	0.0149596
633.704	0.0209975
634.889	0.0269447
636.074	0.0335557
637.259	0.0411916
638.444	0.041951
639.629	0.0417172
640.814	0.0491154
641.999	0.0568032
643.184	0.0563168
644.369	0.0608143
645.554	0.059911
646.739	0.0640027
647.924	0.0727761
649.109	0.0781989
650.294	0.0822924
651.479	0.0881771
652.664	0.0902404
653.849	0.0906325
655.034	0.095796
656.219	0.102779
657.404	0.0971293
658.589	0.108885
659.774	0.118006
660.959	0.128862
662.144	0.138974
663.329	0.145472
664.514	0.152868
665.699	0.16008
666.884	0.160537
668.069	0.163136
669.254	0.169543
670.439	0.174356
671.624	0.185135
672.809	0.189482
673.994	0.188291
675.179	0.188252
676.364	0.189675
677.549	0.190638
678.734	0.186332
679.919	0.176238
681.104	0.16508
682.289	0.155501
683.474	0.149999
684.659	0.136293
685.844	0.129538
687.029	0.116796
688.214	0.109181
689.399	0.0957642
690.584	0.0875221
691.769	0.0805356
692.954	0.0732055
694.139	0.0634341
695.324	0.052777
696.509	0.0457038
697.694	0.0373106
698.879	0.0341038
700.064	0.0368923
701.249	0.0367294
702.434	0.0290771
703.619	0.0290563
704.804	0.0261435
705.989	0.0273936
707.174	0.0286389
708.359	0.0302337
709.544	0.0242063
710.729	0.0139068
711.914	0.0130379
713.099	0.0122252
714.284	0.00992429
715.469	0.0120623
716.654	0.0143055
717.839	0.0138993
719.024	0.00403942
720.209	0.0051039
721.394	0.0123074
722.579	0.014159
723.764	0.0166745
724.949	0.0167326
726.134	0.0115767
727.319	0.00669677
728.504	0.00536283
729.689	0.00752198
730.874	0.00689692
732.059	0.0083561
733.244	0.0170453
734.429	0.019057
735.614	0.0193939
736.799	0.0221907
737.984	0.0262061
739.169	0.0304668
740.354	0.0262808
741.539	0.022951
742.724	0.0260731
743.909	0.0289184
745.094	0.0275553
746.279	0.0235646
747.464	0.0264705
748.649	0.0361494
749.834	0.042315
751.019	0.0408529
752.204	0.0337858
753.389	0.0310144
754.574	0.0259672
755.759	0.0231537
756.944	0.0205454
758.129	0.0174558
759.314	0.0162297
760.499	0.0176508
761.684	0.0166811
762.869	0.0140916
764.054	0.0222375
765.239	0.0332585
766.424	0.0348568
767.609	0.0286024
768.794	0.0212525
769.979	0.0228868
771.164	0.0253973
772.349	0.023971
773.534	0.0205947
774.719	0.0182344
775.904	0.0193128
777.089	0.0166339
778.274	0.0144144
779.459	0.0154541
780.644	0.0139618
781.829	0.0117209
783.014	0.00596396
784.199	-0.00346065
785.384	-0.0105657
786.569	-0.00270076
787.754	0.000272226
788.939	0.000789133
790.124	-0.00616914
791.309	-0.00068411
792.494	0.00861495
793.679	0.0172476
794.864	0.02225
796.049	0.0282691
797.234	0.0370094
798.419	0.0473567
799.604	0.061309
800.789	0.0785837
801.974	0.0967111
803.159	0.121091
804.344	0.149214
805.529	0.166963
806.714	0.187624
807.899	0.210646
809.084	0.243089
810.269	0.267558
811.454	0.295601
812.639	0.322679
813.823	0.34839
815.009	0.372763
816.194	0.392774
817.378	0.409259
818.564	0.421857
819.748	0.430637
820.933	0.439891
822.119	0.447853
823.303	0.44968
824.488	0.455359
825.674	0.464635
826.858	0.46639
828.044	0.468362
829.228	0.466332
830.413	0.473188
831.599	0.486135
832.783	0.502879
833.968	0.519493
835.153	0.54456
836.338	0.570878
837.523	0.599887
838.708	0.636703
839.893	0.672309
841.078	0.706131
842.263	0.744969
843.448	0.780531
844.633	0.81082
845.818	0.846648
847.003	0.881183
848.188	0.907976
849.373	0.923232
850.558	0.936629
851.743	0.944412
852.928	0.948225
854.113	0.942068
855.298	0.937905
856.483	0.93093
857.668	0.905153
858.853	0.883218
860.038	0.860735
861.223	0.829008
862.408	0.795536
863.593	0.762776
864.778	0.727149
865.963	0.6926
867.148	0.660498
868.333	0.625083
869.518	0.588068
870.703	0.549172
871.888	0.513567
873.073	0.481551
874.258	0.4486
875.443	0.407863
876.628	0.385542
877.813	0.356466
878.998	0.331722
880.183	0.313354
881.368	0.297872
882.553	0.278365
883.738	0.258437
884.923	0.236372
886.108	0.224955
887.293	0.215395
888.478	0.205974
889.663	0.203533
890.848	0.201839
892.033	0.197587
893.218	0.197989
894.403	0.202057
895.588	0.204093
896.773	0.206522
897.958	0.211355
899.143	0.217261
900.328	0.224314
901.513	0.239059
902.698	0.250211
903.883	0.270253
905.068	0.284885
906.253	0.297408
907.438	0.3108
908.623	0.319994
909.808	0.335023
910.993	0.345615
912.178	0.356857
913.363	0.368403
914.548	0.380987
915.733	0.39158
916.918	0.400338
918.103	0.409008
919.288	0.413518
920.473	0.414658
921.658	0.4139
922.843	0.40563
924.028	0.393961
925.213	0.386948
926.398	0.381614
927.583	0.372909
928.768	0.363847
929.953	0.352638
931.138	0.333406
932.323	0.314781
933.508	0.292347
934.693	0.270296
935.878	0.248697
937.063	0.218331
938.248	0.203443
939.433	0.182067
940.618	0.168409
941.803	0.153715
942.988	0.14245
944.173	0.125535
945.358	0.111242
946.543	0.0964507
947.728	0.0825459
948.913	0.0767267
950.098	0.0737599
951.283	0.0719892
952.468	0.0729043
953.653	0.0731793
954.838	0.0784145
956.023	0.0848006
957.208	0.0843482
958.393	0.0875107
959.578	0.0902978
960.763	0.0967711
961.948	0.105638
963.133	0.111926
964.318	0.117826
965.503	0.132367
966.688	0.140482
967.873	0.144495
969.058	0.150292
970.243	0.155996
971.428	0.164251
972.613	0.170056
973.798	0.161543
974.983	0.170412
976.168	0.176016
977.353	0.175475
978.538	0.177574
979.723	0.170703
980.908	0.172247
982.093	0.169091
983.278	0.162697
984.463	0.15794
985.648	0.15481
986.833	0.156399
988.018	0.151296
989.203	0.144914
990.388	0.140997
991.573	0.139265
992.758	0.135899
993.943	0.131514
995.128	0.131031
996.313	0.130101
997.498	0.129702
998.683	0.133174
999.868	0.138869
1001.05	0.146614
1002.24	0.149198
1003.42	0.152
1004.61	0.156411
1005.79	0.157786
1006.98	0.168035
1008.16	0.175319
1009.35	0.184295
1010.53	0.194038
1011.72	0.195628
1012.9	0.200622
1014.09	0.206268
1015.27	0.223352
1016.46	0.231761
1017.64	0.240753
1018.83	0.252258
1020.01	0.262396
1021.2	0.272438
1022.38	0.286896
1023.57	0.306682
1024.75	0.32184
1025.94	0.343422
1027.12	0.360428
1028.31	0.384726
1029.49	0.416335
1030.68	0.449
1031.86	0.478207
1033.05	0.505737
1034.23	0.536104
1035.42	0.562528
1036.6	0.589735
1037.79	0.619499
1038.97	0.658514
1040.16	0.686646
1041.34	0.709956
1042.53	0.736002
1043.71	0.756662
1044.9	0.773194
1046.08	0.787922
1047.27	0.798334
1048.45	0.808439
1049.64	0.81722
1050.82	0.820319
1052.01	0.817312
1053.19	0.81782
1054.38	0.815257
1055.56	0.809541
1056.75	0.795994
1057.93	0.783783
1059.12	0.777287
1060.3	0.766091
1061.49	0.750828
1062.67	0.739761
1063.86	0.724841
1065.04	0.704611
1066.23	0.685146
1067.41	0.665195
1068.6	0.645228
1069.78	0.626057
1070.97	0.611352
1072.15	0.594101
1073.34	0.57838
1074.52	0.566986
1075.71	0.558716
1076.89	0.542197
1078.08	0.529174
1079.26	0.517934
1080.45	0.502687
1081.63	0.492569
1082.82	0.48935
1084	0.481256
1085.19	0.474553
1086.37	0.469884
1087.56	0.466921
1088.74	0.458952
1089.93	0.451079
1091.11	0.450446
1092.3	0.445043
1093.48	0.4414
1094.67	0.442388
1095.85	0.440608
1097.04	0.439508
1098.22	0.444854
1099.41	0.443379
1100.59	0.438819
1101.78	0.442204
1102.96	0.440556
1104.15	0.44564
1105.33	0.450961
1106.52	0.453765
1107.7	0.452752
1108.89	0.439899
1110.07	0.432348
1111.26	0.424896
1112.44	0.409767
1113.63	0.395464
1114.81	0.378807
1116	0.355132
1117.18	0.341911
1118.37	0.326765
1119.55	0.307053
1120.74	0.29172
1121.92	0.265614
1123.11	0.243545
1124.29	0.220589
1125.48	0.203278
1126.66	0.191598
1127.85	0.171675
1129.03	0.151526
1130.22	0.14046
1131.4	0.125799
1132.59	0.114171
1133.77	0.105737
1134.96	0.0926958
1136.14	0.0828061
1137.33	0.0684087
1138.51	0.0590383
1139.7	0.0539507
1140.88	0.0490823
1142.07	0.0470026
1143.25	0.0426012
1144.44	0.0344522
1145.62	0.0329761
1146.81	0.0254659
1147.99	0.013035
1149.18	0.0109667
1150.36	0.0112095
1151.55	0.0102856
1152.73	0.0101917
1153.92	0.00882546
1155.1	0.00823114
1156.29	0.00919392
1157.47	0.00795991
1158.66	0.00289706
1159.84	0.00123362
1161.03	-0.00201549
1162.21	-0.00228305
1163.4	-0.00269455
1164.58	0.00379341
1165.77	0.0123256
1166.95	0.0127254
1168.14	0.0134671
1169.32	0.0174063
1170.51	0.0166324
1171.69	0.0140978
1172.88	0.0148826
1174.06	0.0117048
1175.25	0.00905604
1176.43	0.00988597
1177.62	0.0109099
1178.8	0.0161855
1179.99	0.0224387
1181.17	0.027468
1182.36	0.0302296
1183.54	0.0324997
1184.73	0.0346578
1185.91	0.0357248
1187.1	0.0380569
1188.28	0.0408544
1189.47	0.0434445
1190.65	0.0479051
1191.84	0.0510266
1193.02	0.0561765
1194.21	0.0571117
1195.39	0.0559881
1196.58	0.056152
1197.76	0.0579634
1198.95	0.0601155
1200.13	0.0578278
1201.32	0.056258
1202.5	0.0624241
1203.69	0.0673522
1204.87	0.063709
1206.06	0.0638143
1207.24	0.0663486
1208.43	0.067858
1209.61	0.0844092
1210.8	0.0901774
1211.98	0.0990994
1213.17	0.0999124
1214.35	0.101973
1215.54	0.092129
1216.72	0.0981084
1217.91	0.101583
1219.09	0.109399
1220.28	0.0970941
1221.46	0.0977182
1222.65	0.101968
1223.83	0.116478
1225.02	0.123653
1226.2	0.119315
1227.39	0.116872
1228.57	0.115236
1229.76	0.11702
1230.94	0.119464
1232.13	0.123512
1233.31	0.134922
1234.5	0.141209
1235.68	0.152717
1236.87	0.163793
1238.05	0.180168
1239.24	0.190237
1240.42	0.19615
1241.61	0.197164
1242.79	0.20296
1243.98	0.211802
1245.16	0.216114
1246.35	0.220965
1247.53	0.227083
1248.72	0.233855
1249.9	0.236664
1251.09	0.235147
1252.27	0.233905
1253.46	0.234667
1254.64	0.230717
1255.83	0.225803
1257.01	0.224089
1258.2	0.227851
1259.38	0.232619
1260.57	0.239752
1261.75	0.23483
1262.94	0.241365
1264.12	0.24216
1265.31	0.259836
1266.49	0.269345
1267.68	0.272662
1268.86	0.278225
1270.05	0.276149
1271.23	0.27321
1272.42	0.274565
1273.6	0.275161
1274.79	0.276149
1275.97	0.276589
1277.16	0.268188
1278.34	0.261717
1279.53	0.256483
1280.71	0.244154
1281.9	0.24121
1283.08	0.231759
1284.27	0.226624
1285.45	0.222095
1286.64	0.216836
1287.82	0.213043
1289.01	0.212588
1290.19	0.210887
1291.38	0.207598
1292.56	0.200468
1293.75	0.198313
1294.93	0.196032
1296.12	0.202964
1297.3	0.212204
1298.49	0.205464
1299.67	0.205483
1300.86	0.201646
1302.04	0.206511
1303.23	0.204538
1304.41	0.211598
1305.6	0.209037
1306.78	0.212809
1307.97	0.214308
1309.15	0.218658
1310.34	0.221004
1311.52	0.226201
1312.71	0.230604
1313.89	0.225161
1315.08	0.231615
1316.26	0.237118
1317.45	0.231065
1318.63	0.226333
1319.82	0.223339
1321	0.218595
1322.19	0.217295
1323.37	0.216733
1324.56	0.213376
1325.74	0.204618
1326.93	0.201311
1328.11	0.199301
1329.3	0.192896
1330.48	0.185521
1331.67	0.179051
1332.85	0.171431
1334.04	0.172189
1335.22	0.173257
1336.41	0.170028
1337.59	0.166555
1338.78	0.172818
1339.96	0.171622
1341.15	0.167002
1342.33	0.166195
1343.52	0.165393
1344.7	0.159347
1345.89	0.15956
1347.07	0.168541
1348.26	0.175484
1349.44	0.172633
1350.63	0.168159
1351.81	0.168177
1353	0.175688
1354.18	0.172679
1355.37	0.164364
1356.55	0.155302
1357.74	0.163112
1358.92	0.160457
1360.11	0.167024
1361.29	0.17337
1362.48	0.17663
1363.66	0.164758
1364.85	0.158623
1366.03	0.156428
1367.22	0.160297
1368.4	0.156498
1369.59	0.148452
1370.77	0.14515
1371.96	0.149403
1373.14	0.154457
1374.33	0.154268
1375.51	0.155572
1376.7	0.154422
1377.88	0.150473
1379.07	0.149898
1380.25	0.152788
1381.44	0.153809
1382.62	0.149532
1383.81	0.154003
1384.99	0.160718
1386.18	0.166216
1387.36	0.16965
1388.55	0.179145
1389.73	0.17409
1390.92	0.167589
1392.1	0.16903
1393.29	0.173117
1394.47	0.171078
1395.66	0.165485
1396.84	0.162777
1398.03	0.160964
1399.21	0.166621
1400.4	0.159254
1401.58	0.149199
1402.77	0.146308
1403.95	0.145087
1405.14	0.131327
1406.32	0.136844
1407.51	0.13922
1408.69	0.137512
1409.88	0.133243
1411.06	0.130967
1412.25	0.133141
1413.43	0.132479
1414.62	0.13133
1415.8	0.126914
1416.99	0.129027
1418.17	0.133467
1419.36	0.136312
1420.54	0.13967
1421.73	0.138771
1422.91	0.139223
1424.1	0.141541
1425.28	0.142258
1426.47	0.14202
1427.65	0.146289
1428.84	0.150629
1430.02	0.15395
1431.21	0.153897
1432.39	0.15653
1433.58	0.164112
1434.76	0.176296
1435.95	0.186605
1437.13	0.195816
1438.32	0.203943
1439.5	0.213505
1440.69	0.222499
1441.87	0.234921
1443.06	0.247665
1444.24	0.254022
1445.43	0.261697
1446.61	0.277545
1447.8	0.298537
1448.98	0.318525
1450.17	0.332288
1451.35	0.343719
1452.54	0.357724
1453.72	0.373403
1454.91	0.396352
1456.09	0.411151
1457.28	0.430965
1458.46	0.446696
1459.65	0.456993
1460.83	0.474859
1462.02	0.487499
1463.2	0.502386
1464.39	0.50233
1465.57	0.501515
1466.76	0.496698
1467.94	0.487759
1469.13	0.47616
1470.31	0.461739
1471.5	0.441065
1472.68	0.42788
1473.87	0.403159
1475.05	0.38483
1476.24	0.360341
1477.42	0.339499
1478.61	0.310609
1479.79	0.275932
1480.98	0.248583
1482.16	0.222204
1483.35	0.198986
1484.53	0.176635
1485.72	0.159264
1486.9	0.143938
1488.09	0.129192
1489.27	0.107989
1490.46	0.0972708
1491.64	0.0788876
1492.83	0.0724066
1494.01	0.0656488
1495.2	0.067789
1496.38	0.0615782
1497.57	0.0608857
1498.75	0.0586078
1499.94	0.0576619
1501.12	0.0526364
1502.31	0.0447061
1503.49	0.0409566
1504.68	0.0384661
1505.86	0.0419206
1507.05	0.0395394
1508.23	0.0453344
1509.42	0.042888
1510.6	0.0304208
1511.79	0.0296643
1512.97	0.0318301
1514.16	0.0292874
1515.34	0.0331186
1516.53	0.0366226
1517.71	0.0429012
1518.9	0.0450475
1520.08	0.0427787
1521.27	0.0421772
1522.45	0.0369326
1523.64	0.0297131
1524.82	0.0213619
1526.01	0.0232458
1527.19	0.0285139
1528.38	0.0230423
1529.56	0.021638
1530.75	0.0196036
1531.93	0.014026
1533.12	0.00958565
1534.3	0.00367595
1535.49	0.0023148
1536.67	0.00141397
1537.86	0.00205368
1539.04	0.00211491
1540.23	0.00683752
1541.41	0.0062446
1542.6	0.00545452
1543.78	0.000696802
1544.97	-0.00130383
1546.15	-0.00288212
1547.34	7.43495e-005
1548.52	0.00283295
1549.71	0.00299107
1550.89	0.00497662
1552.08	0.000293101
1553.26	0.00255384
1554.45	0.00574471
1555.63	0.00527969
1556.82	0.00520438
1558	0.00445739
1559.19	0.00237211
1560.37	0.00721083
1561.56	0.0101768
1562.74	0.0137757
1563.93	0.0132113
1565.11	0.0132212
1566.3	0.0160769
1567.48	0.0167843
1568.67	0.0192996
1569.85	0.0169274
1571.04	0.0149581
1572.22	0.0175082
1573.41	0.0148483
1574.59	0.0165554
1575.78	0.0208978
1576.96	0.0165371
1578.15	0.0157065
1579.33	0.0144464
1580.52	0.01572
1581.7	0.0141125
1582.89	0.0117137
1584.07	0.0119358
1585.26	0.0111619
1586.44	0.0103898
1587.63	0.00839059
1588.81	0.00903961
1590	0.00924186
1591.18	0.00803338
1592.37	0.00517552
1593.55	0.00525643
1594.74	0.00656841
1595.92	0.00643592
1597.11	0.00240467
1598.29	0.00212972
1599.48	0.000679838
1600.66	-0.00136281
1601.85	-0.00342329
1603.03	0.00290692
1604.22	0.00663108
1605.4	0.00557112
1606.59	0.0069686
1607.77	0.00758662
1608.96	0.010198
1610.14	0.0111125
1611.33	0.0100444
1612.51	0.00751603
1613.7	0.0128416
1614.88	0.0112422
1616.07	0.0123659
1617.25	0.0144427
1618.44	0.0145203
1619.62	0.0112654
1620.81	0.0120038
1621.99	0.0114467
1623.18	0.0134729
1624.36	0.0205108
1625.55	0.0219593
1626.73	0.0216924
1627.92	0.02396
1629.1	0.0272448
1630.29	0.028
1631.47	0.0290546
1632.66	0.0316248
1633.84	0.0279461
1635.03	0.0380074
1636.21	0.0380536
1637.4	0.0413438
1638.58	0.0392517
1639.77	0.0332324
1640.95	0.0320037
1642.14	0.036881
1643.32	0.041971
1644.51	0.0440333
1645.69	0.0479616
1646.88	0.0485638
1648.06	0.0493098
1649.25	0.0519334
1650.43	0.0484223
1651.62	0.0447537
1652.8	0.0520349
1653.99	0.0517243
1655.17	0.0493637
1656.36	0.0473067
1657.54	0.0492369
1658.73	0.0483466
1659.91	0.0481183
1661.1	0.044332
1662.28	0.043746
1663.47	0.0467852
1664.65	0.0461007
1665.84	0.0473836
1667.02	0.0489947
1668.21	0.0525316
1669.39	0.0536542
1670.58	0.0564123
1671.76	0.060727
1672.95	0.0640794
1674.13	0.0632003
1675.32	0.0634057
1676.5	0.0604593
1677.69	0.0646653
1678.87	0.0644543
1680.06	0.068286
1681.24	0.0719684
1682.43	0.0733844
1683.61	0.0683753
1684.8	0.0581072
1685.98	0.0578642
1687.17	0.0538882
1688.35	0.0502127
1689.54	0.0439373
1690.72	0.0383622
1691.91	0.0355789
1693.09	0.0326219
1694.28	0.0315595
1695.46	0.0258763
1696.65	0.015825
1697.83	0.0125845
1699.02	0.00755925
1700.2	0.00803497
1701.39	0.00780699
1702.57	0.00369866
1703.76	0.00201367
1704.94	0.00472274
1706.13	0.0079061
1707.31	0.011145
1708.5	0.014203
1709.68	0.0140186
1710.87	0.0165211
1712.05	0.0221875
1713.24	0.0229348
1714.42	0.0251452
1715.61	0.027818
1716.79	0.0255662
1717.98	0.0274051
1719.16	0.0313433
1720.35	0.0359037
1721.53	0.0353785
1722.72	0.0332576
1723.9	0.0288748
1725.09	0.0291969
1726.27	0.0287776
1727.46	0.0262784
1728.64	0.0274795
1729.83	0.027097
1731.01	0.0261889
1732.2	0.0254995
1733.38	0.026361
1734.57	0.0257587
1735.75	0.0261118
1736.94	0.0254651
1738.12	0.026889
1739.31	0.0245572
1740.49	0.0275232
1741.68	0.0215109
1742.86	0.0205496
1744.05	0.0183839
1745.23	0.0158172
1746.42	0.0171012
1747.6	0.0216861
1748.79	0.0191523
1749.97	0.0236585
1751.16	0.0228869
1752.34	0.0228456
1753.53	0.0231669
1754.71	0.0251274
1755.9	0.0249555
1757.08	0.0274979
1758.27	0.0295966
1759.45	0.0268214
1760.64	0.0255315
1761.82	0.0221548
1763.01	0.0154849
1764.19	0.013144
1765.38	0.0106374
1766.56	0.0092974
1767.74	0.00786243
1768.93	0.00652918
1770.12	0.00358662
1771.3	0.000377458
1772.49	-0.0030354
1773.67	-0.00416019
1774.85	-0.00367146
1776.04	0.0014052
1777.23	0.00509051
1778.41	0.0105163
1779.6	0.00990314
1780.78	0.00429104
1781.97	0.00478176
1783.15	0.00323416
1784.34	0.00138266
1785.52	0.00230688
1786.7	0.00462599
1787.89	0.00790991
1789.08	0.00735715
1790.26	0.00459231
1791.45	0.00236835
1792.63	0.000147725
1793.81	-0.000153325
1795	0.00130034
