405	0.12711
406.185	0.147847
407.37	0.170816
408.555	0.191997
409.74	0.213976
410.925	0.238322
412.11	0.260486
413.295	0.274368
414.48	0.290287
415.665	0.29958
416.85	0.300084
418.035	0.309614
419.22	0.315277
420.405	0.312033
421.59	0.302281
422.775	0.287812
423.96	0.26932
425.145	0.241244
426.33	0.224967
427.515	0.201119
428.7	0.188277
429.885	0.172082
431.07	0.146483
432.255	0.125382
433.44	0.109693
434.625	0.083058
435.81	0.0681599
436.995	0.0485309
438.18	0.029785
439.365	0.00852177
440.55	-0.00922062
441.735	-0.0105657
442.92	0.0058354
444.105	0.0132833
445.29	0.0251194
446.475	0.0185018
447.66	0.0201253
448.845	0.0152358
450.03	0.0121933
451.215	0.0139265
452.4	0.010833
453.585	0.0151092
454.77	0.0381559
455.955	0.0442089
457.14	0.0695383
458.325	0.0945196
459.51	0.121008
460.695	0.144537
461.88	0.157321
463.065	0.164481
464.25	0.184286
465.435	0.217986
466.62	0.263631
467.805	0.301484
468.99	0.340806
470.175	0.382933
471.36	0.431196
472.545	0.488542
473.73	0.545955
474.915	0.586309
476.1	0.642202
477.285	0.691682
478.47	0.731641
479.655	0.769677
480.84	0.808223
482.025	0.846415
483.21	0.880548
484.395	0.903696
485.58	0.916057
486.765	0.932824
487.95	0.942354
489.135	0.943865
490.32	0.945172
491.505	0.932844
492.69	0.904766
493.875	0.874972
495.06	0.847847
496.245	0.815852
497.43	0.785559
498.615	0.751155
499.8	0.713089
500.985	0.684144
502.17	0.657135
503.355	0.629264
504.54	0.603944
505.725	0.575445
506.91	0.536434
508.095	0.506417
509.28	0.478033
510.465	0.448809
511.65	0.423823
512.835	0.405226
514.02	0.386426
515.205	0.364595
516.39	0.344336
517.575	0.320471
518.76	0.30273
519.945	0.303954
521.13	0.28963
522.315	0.276322
523.5	0.260637
524.685	0.249388
525.87	0.236324
527.055	0.217218
528.24	0.218362
529.425	0.214383
530.61	0.209829
531.794	0.219719
532.98	0.216699
534.165	0.218277
535.35	0.227684
536.535	0.234065
537.719	0.237672
538.905	0.244632
540.09	0.235248
541.274	0.243236
542.46	0.247185
543.644	0.252
544.829	0.249983
546.015	0.259002
547.199	0.264568
548.384	0.268987
549.57	0.276658
550.754	0.270693
551.94	0.266575
553.124	0.269208
554.309	0.261268
555.495	0.245308
556.679	0.239067
557.864	0.236378
559.049	0.234493
560.234	0.22998
561.419	0.219806
562.604	0.20915
563.789	0.208001
564.974	0.211338
566.159	0.222203
567.344	0.220982
568.529	0.212943
569.714	0.207512
570.899	0.204571
572.084	0.200254
573.269	0.198063
574.454	0.200497
575.639	0.19288
576.824	0.196308
578.009	0.185336
579.194	0.186298
580.379	0.188755
581.564	0.199968
582.749	0.207453
583.934	0.20802
585.119	0.20062
586.304	0.187112
587.489	0.181003
588.674	0.165352
589.859	0.162895
591.044	0.156787
592.229	0.158437
593.414	0.150333
594.599	0.155942
595.784	0.156239
596.969	0.153639
598.154	0.157321
599.339	0.151868
600.524	0.145583
601.709	0.12868
602.894	0.124923
604.079	0.121361
605.264	0.120171
606.449	0.118391
607.634	0.120248
608.819	0.119971
610.004	0.119486
611.189	0.119176
612.374	0.114053
613.559	0.123224
614.744	0.116999
615.929	0.117802
617.114	0.109338
618.299	0.108029
619.484	0.108553
620.669	0.109781
621.854	0.103555
623.039	0.0907668
624.224	0.0824604
625.409	0.0835747
626.594	0.088163
627.779	0.0916794
628.964	0.0841288
630.149	0.0685395
631.334	0.0631516
632.519	0.0563857
633.704	0.0451193
634.889	0.043451
636.074	0.0436855
637.259	0.0402372
638.444	0.0379466
639.629	0.0258772
640.814	0.0231235
641.999	0.0233884
643.184	0.0171477
644.369	0.018393
645.554	0.00617199
646.739	-0.00246449
647.924	-0.00137805
649.109	0.00292806
650.294	0.00466863
651.479	0.00801122
652.664	0.020096
653.849	0.0346356
655.034	0.0363704
656.219	0.0435356
657.404	0.0487742
658.589	0.0687999
659.774	0.0761209
660.959	0.0889898
662.144	0.105122
663.329	0.119918
664.514	0.137806
665.699	0.156674
666.884	0.168495
668.069	0.182636
669.254	0.202668
670.439	0.221175
671.624	0.218019
672.809	0.214913
673.994	0.219058
675.179	0.229265
676.364	0.229013
677.549	0.220428
678.734	0.219047
679.919	0.221817
681.104	0.218524
682.289	0.216886
683.474	0.202696
684.659	0.190723
685.844	0.183389
687.029	0.176894
688.214	0.160757
689.399	0.149512
690.584	0.144089
691.769	0.138303
692.954	0.127926
694.139	0.111323
695.324	0.0999138
696.509	0.103468
697.694	0.102297
698.879	0.092164
700.064	0.101445
701.249	0.0996273
702.434	0.0902877
703.619	0.0869829
704.804	0.091712
705.989	0.0951404
707.174	0.1044
708.359	0.107843
709.544	0.102382
710.729	0.100889
711.914	0.104224
713.099	0.103414
714.284	0.107294
715.469	0.100729
716.654	0.0964829
717.839	0.101056
719.024	0.0911967
720.209	0.0857553
721.394	0.0961756
722.579	0.107971
723.764	0.106693
724.949	0.101498
726.134	0.0947361
727.319	0.0859458
728.504	0.0849775
729.689	0.0842731
730.874	0.0813374
732.059	0.0823531
733.244	0.0888881
734.429	0.0810765
735.614	0.0872552
736.799	0.0905059
737.984	0.0949018
739.169	0.104364
740.354	0.108615
741.539	0.106567
742.724	0.112066
743.909	0.121076
745.094	0.121732
746.279	0.125669
747.464	0.12156
748.649	0.122432
749.834	0.126312
751.019	0.128069
752.204	0.117901
753.389	0.128154
754.574	0.130573
755.759	0.130788
756.944	0.130591
758.129	0.12321
759.314	0.11227
760.499	0.103995
761.684	0.0948602
762.869	0.0827977
764.054	0.0738591
765.239	0.0659116
766.424	0.0705284
767.609	0.0816562
768.794	0.0637657
769.979	0.060442
771.164	0.0570562
772.349	0.0479572
773.534	0.0391432
774.719	0.0293057
775.904	0.0230245
777.089	0.0185568
778.274	0.0179155
779.459	0.0182936
780.644	0.0142594
781.829	0.0141394
783.014	0.0192073
784.199	0.0200092
785.384	0.0219108
786.569	0.00955098
787.754	0.0157293
788.939	0.014604
790.124	0.0158859
791.309	0.0117386
792.494	0.00659432
793.679	0.00778192
794.864	-0.00252495
796.049	-0.00934883
797.234	-0.00841637
798.419	-0.00319612
799.604	0.00566631
800.789	0.00794085
801.974	0.010391
803.159	0.025781
804.344	0.039661
805.529	0.0552161
806.714	0.0802454
807.899	0.104237
809.084	0.132603
810.269	0.161571
811.453	0.187044
812.639	0.213212
813.824	0.249531
815.008	0.280825
816.194	0.30912
817.379	0.333819
818.563	0.355387
819.749	0.377413
820.933	0.39359
822.118	0.39912
823.304	0.397703
824.488	0.393159
825.674	0.389154
826.858	0.388608
828.043	0.389724
829.229	0.399994
830.413	0.400863
831.598	0.403458
832.784	0.415888
833.968	0.421582
835.153	0.435195
836.338	0.455182
837.523	0.483945
838.708	0.523314
839.893	0.55892
841.078	0.593686
842.263	0.639326
843.448	0.688365
844.633	0.736284
845.818	0.775843
847.003	0.812682
848.188	0.841283
849.373	0.875761
850.558	0.904093
851.743	0.920465
852.928	0.947126
854.113	0.948225
855.298	0.947156
856.483	0.93921
857.668	0.919645
858.853	0.902207
860.038	0.884957
861.223	0.864424
862.408	0.837354
863.593	0.809668
864.778	0.780434
865.963	0.744238
867.148	0.706729
868.333	0.668577
869.518	0.629196
870.703	0.5913
871.888	0.559016
873.073	0.526444
874.258	0.49846
875.443	0.461382
876.628	0.438553
877.813	0.422006
878.998	0.405807
880.183	0.384451
881.368	0.35936
882.553	0.339324
883.738	0.320865
884.923	0.303385
886.108	0.289443
887.293	0.28222
888.478	0.276001
889.663	0.264741
890.848	0.259171
892.033	0.257257
893.218	0.250178
894.403	0.253253
895.588	0.258361
896.773	0.257409
897.958	0.262112
899.143	0.274532
900.328	0.285351
901.513	0.290569
902.698	0.307374
903.883	0.325186
905.068	0.347885
906.253	0.352605
907.438	0.362349
908.623	0.376392
909.808	0.381382
910.993	0.397
912.178	0.417135
913.363	0.428762
914.548	0.441999
915.733	0.452862
916.918	0.460747
918.103	0.470041
919.288	0.481018
920.473	0.485173
921.658	0.479347
922.843	0.47396
924.028	0.473662
925.213	0.476881
926.398	0.473728
927.583	0.468819
928.768	0.456762
929.953	0.439192
931.138	0.412189
932.323	0.391798
933.508	0.368536
934.693	0.333522
935.878	0.309333
937.063	0.280668
938.248	0.254585
939.433	0.227098
940.618	0.211768
941.803	0.187062
942.988	0.166164
944.173	0.146881
945.358	0.125617
946.543	0.111156
947.728	0.0996429
948.913	0.0927528
950.098	0.0829051
951.283	0.0763981
952.468	0.0798574
953.653	0.0860338
954.838	0.089929
956.023	0.0905871
957.208	0.0970761
958.393	0.108813
959.578	0.112699
960.763	0.12551
961.948	0.132897
963.133	0.13631
964.318	0.143936
965.503	0.155777
966.688	0.169857
967.873	0.181876
969.058	0.196504
970.243	0.206471
971.428	0.211362
972.613	0.206872
973.798	0.215696
974.983	0.215105
976.168	0.213319
977.353	0.213663
978.538	0.208868
979.723	0.201555
980.908	0.205244
982.093	0.213734
983.278	0.211949
984.463	0.210457
985.648	0.207602
986.833	0.199942
988.018	0.190624
989.203	0.184596
990.388	0.186829
991.573	0.191427
992.758	0.19561
993.943	0.200874
995.128	0.206894
996.313	0.211678
997.498	0.215589
998.683	0.215594
999.868	0.214068
1001.05	0.219829
1002.24	0.222683
1003.42	0.221556
1004.61	0.226694
1005.79	0.236739
1006.98	0.243092
1008.16	0.237767
1009.35	0.230139
1010.53	0.231567
1011.72	0.244615
1012.9	0.246531
1014.09	0.249879
1015.27	0.249905
1016.46	0.253087
1017.64	0.261293
1018.83	0.269926
1020.01	0.2806
1021.2	0.29226
1022.38	0.300627
1023.57	0.317102
1024.75	0.324629
1025.94	0.35081
1027.12	0.37084
1028.31	0.397838
1029.49	0.406891
1030.68	0.419534
1031.86	0.437086
1033.05	0.462101
1034.23	0.485816
1035.42	0.521841
1036.6	0.550527
1037.79	0.575098
1038.97	0.609056
1040.16	0.64116
1041.34	0.665802
1042.53	0.694288
1043.71	0.711282
1044.9	0.728436
1046.08	0.74457
1047.27	0.761979
1048.45	0.781685
1049.64	0.797841
1050.82	0.809152
1052.01	0.815656
1053.19	0.810346
1054.38	0.800815
1055.56	0.793857
1056.75	0.781366
1057.93	0.765976
1059.12	0.750232
1060.3	0.732914
1061.49	0.721206
1062.67	0.710116
1063.86	0.694149
1065.04	0.677197
1066.23	0.655344
1067.41	0.631714
1068.6	0.610658
1069.78	0.590364
1070.97	0.575666
1072.15	0.563236
1073.34	0.546905
1074.52	0.530916
1075.71	0.516358
1076.89	0.503576
1078.08	0.489824
1079.26	0.467595
1080.45	0.454558
1081.63	0.447797
1082.82	0.434965
1084	0.426912
1085.19	0.42363
1086.37	0.417872
1087.56	0.414853
1088.74	0.415772
1089.93	0.407205
1091.11	0.392403
1092.3	0.374998
1093.48	0.367564
1094.67	0.359428
1095.85	0.354097
1097.04	0.35502
1098.22	0.358181
1099.41	0.340692
1100.59	0.328442
1101.78	0.318842
1102.96	0.317297
1104.15	0.311108
1105.33	0.302586
1106.52	0.289988
1107.7	0.286122
1108.89	0.291429
1110.07	0.30496
1111.26	0.302527
1112.44	0.305728
1113.63	0.302238
1114.81	0.299349
1116	0.288728
1117.18	0.289739
1118.37	0.285765
1119.55	0.28074
1120.74	0.265026
1121.92	0.262179
1123.11	0.25163
1124.29	0.244555
1125.48	0.23146
1126.66	0.208825
1127.85	0.184414
1129.03	0.166102
1130.22	0.143324
1131.4	0.120962
1132.59	0.103778
1133.77	0.0854845
1134.96	0.0704099
1136.14	0.0604141
1137.33	0.0527423
1138.51	0.0471404
1139.7	0.0335961
1140.88	0.0243086
1142.07	0.0106824
1143.25	0.00565416
1144.44	0.00571905
1145.62	0.00475948
1146.81	0.00600877
1147.99	0.00872725
1149.18	0.0167106
1150.36	0.0216001
1151.55	0.02272
1152.73	0.0307266
1153.92	0.0332402
1155.1	0.03889
1156.29	0.0471773
1157.47	0.0478083
1158.66	0.0503222
1159.84	0.0464753
1161.03	0.0434983
1162.21	0.0480406
1163.4	0.0489179
1164.58	0.0472855
1165.77	0.0461935
1166.95	0.0416412
1168.14	0.0407965
1169.32	0.0369949
1170.51	0.0265803
1171.69	0.0266334
1172.88	0.0172014
1174.06	0.00201844
1175.25	-0.00276755
1176.43	-0.000736128
1177.62	0.00684692
1178.8	0.00774045
1179.99	0.0020216
1181.17	0.00409391
1182.36	0.0048429
1183.54	0.00342997
1184.73	0.00874186
1185.91	0.0102353
1187.1	0.014455
1188.28	0.0209168
1189.47	0.0264132
1190.65	0.0348883
1191.84	0.0494719
1193.02	0.0603251
1194.21	0.0684965
1195.39	0.0764727
1196.58	0.0851161
1197.76	0.0927628
1198.95	0.098974
1200.13	0.113257
1201.32	0.117489
1202.5	0.114637
1203.69	0.126067
1204.87	0.125655
1206.06	0.127093
1207.24	0.124558
1208.43	0.124824
1209.61	0.124491
1210.8	0.123703
1211.98	0.129749
1213.17	0.129431
1214.35	0.129954
1215.54	0.133273
1216.72	0.124531
1217.91	0.116368
1219.09	0.12903
1220.28	0.134099
1221.46	0.13508
1222.65	0.146969
1223.83	0.15477
1225.02	0.159551
1226.2	0.167272
1227.39	0.169514
1228.57	0.178512
1229.76	0.180407
1230.94	0.183009
1232.13	0.187718
1233.31	0.199771
1234.5	0.212988
1235.68	0.220384
1236.87	0.224859
1238.05	0.238938
1239.24	0.250499
1240.42	0.253849
1241.61	0.257206
1242.79	0.263985
1243.98	0.276318
1245.16	0.290725
1246.35	0.297009
1247.53	0.309739
1248.72	0.32064
1249.9	0.331324
1251.09	0.339861
1252.27	0.347963
1253.46	0.351585
1254.64	0.352314
1255.83	0.352548
1257.01	0.359073
1258.2	0.355756
1259.38	0.357424
1260.57	0.37095
1261.75	0.368134
1262.94	0.370078
1264.12	0.360061
1265.31	0.349333
1266.49	0.353802
1267.68	0.340609
1268.86	0.338654
1270.05	0.342385
1271.23	0.345451
1272.42	0.337213
1273.6	0.332923
1274.79	0.328644
1275.97	0.330671
1277.16	0.328606
1278.34	0.321196
1279.53	0.315949
1280.71	0.313211
1281.9	0.31889
1283.08	0.320579
1284.27	0.325137
1285.45	0.330219
1286.64	0.324869
1287.82	0.319522
1289.01	0.322253
1290.19	0.324781
1291.38	0.326124
1292.56	0.32901
1293.75	0.33016
1294.93	0.323806
1296.12	0.320333
1297.3	0.326839
1298.49	0.332572
1299.67	0.330148
1300.86	0.322123
1302.04	0.317163
1303.23	0.312045
1304.41	0.314896
1305.6	0.313926
1306.78	0.312629
1307.97	0.31711
1309.15	0.320577
1310.34	0.319298
1311.52	0.312751
1312.71	0.321441
1313.89	0.320018
1315.08	0.316747
1316.26	0.317599
1317.45	0.327509
1318.63	0.331518
1319.82	0.327668
1321	0.327207
1322.19	0.326854
1323.37	0.331901
1324.56	0.333659
1325.74	0.336485
1326.93	0.33829
1328.11	0.346625
1329.3	0.339875
1330.48	0.331816
1331.67	0.326023
1332.85	0.321217
1334.04	0.309614
1335.22	0.301236
1336.41	0.302187
1337.59	0.31055
1338.78	0.302342
1339.96	0.294083
1341.15	0.280408
1342.33	0.266194
1343.52	0.253092
1344.7	0.246349
1345.89	0.241711
1347.07	0.24179
1348.26	0.239817
1349.44	0.233964
1350.63	0.233554
1351.81	0.234844
1353	0.234229
1354.18	0.230684
1355.37	0.230161
1356.55	0.241102
1357.74	0.239431
1358.92	0.246045
1360.11	0.25697
1361.29	0.269824
1362.48	0.277625
1363.66	0.280149
1364.85	0.276405
1366.03	0.278154
1367.22	0.281763
1368.4	0.281047
1369.59	0.278119
1370.77	0.278465
1371.96	0.275168
1373.14	0.27343
1374.33	0.280029
1375.51	0.280384
1376.7	0.272777
1377.88	0.26452
1379.07	0.257182
1380.25	0.256753
1381.44	0.251685
1382.62	0.258988
1383.81	0.260852
1384.99	0.261623
1386.18	0.269638
1387.36	0.264714
1388.55	0.262051
1389.73	0.265289
1390.92	0.262021
1392.1	0.261439
1393.29	0.262639
1394.47	0.259548
1395.66	0.255363
1396.84	0.256328
1398.03	0.261481
1399.21	0.266353
1400.4	0.266555
1401.58	0.265925
1402.77	0.259205
1403.95	0.268104
1405.14	0.268776
1406.32	0.269301
1407.51	0.261586
1408.69	0.252228
1409.88	0.252395
1411.06	0.247404
1412.25	0.251273
1413.43	0.249487
1414.62	0.2453
1415.8	0.239978
1416.99	0.235771
1418.17	0.235534
1419.36	0.233247
1420.54	0.227172
1421.73	0.22914
1422.91	0.231849
1424.1	0.228318
1425.28	0.226203
1426.47	0.226089
1427.65	0.226187
1428.84	0.229267
1430.02	0.22789
1431.21	0.23005
1432.39	0.232549
1433.58	0.233056
1434.76	0.240686
1435.95	0.248471
1437.13	0.248069
1438.32	0.25409
1439.5	0.257932
1440.69	0.276122
1441.87	0.293756
1443.06	0.305438
1444.24	0.326995
1445.43	0.339254
1446.61	0.350752
1447.8	0.370976
1448.98	0.387409
1450.17	0.410972
1451.35	0.420192
1452.54	0.433
1453.72	0.458183
1454.91	0.472787
1456.09	0.486852
1457.28	0.496805
1458.46	0.51285
1459.65	0.52576
1460.83	0.543391
1462.02	0.561727
1463.2	0.576192
1464.39	0.582853
1465.57	0.586514
1466.76	0.580545
1467.94	0.580254
1469.13	0.577534
1470.31	0.563927
1471.5	0.55441
1472.68	0.543135
1473.87	0.524994
1475.05	0.498819
1476.24	0.468159
1477.42	0.432909
1478.61	0.401508
1479.79	0.365343
1480.98	0.335539
1482.16	0.305792
1483.35	0.282867
1484.53	0.257105
1485.72	0.234534
1486.9	0.219494
1488.09	0.193862
1489.27	0.168088
1490.46	0.148082
1491.64	0.136582
1492.83	0.141301
1494.01	0.133692
1495.2	0.121905
1496.38	0.123493
1497.57	0.117941
1498.75	0.108932
1499.94	0.0953054
1501.12	0.0898498
1502.31	0.0850817
1503.49	0.0768185
1504.68	0.0804469
1505.86	0.0876289
1507.05	0.0839729
1508.23	0.07885
1509.42	0.062791
1510.6	0.0630251
1511.79	0.0678421
1512.97	0.0602784
1514.16	0.0560051
1515.34	0.0624314
1516.53	0.0714023
1517.71	0.0691024
1518.9	0.0633866
1520.08	0.0629632
1521.27	0.0561373
1522.45	0.0547519
1523.64	0.0598815
1524.82	0.0665884
1526.01	0.0695526
1527.19	0.0665403
1528.38	0.0617787
1529.56	0.0620742
1530.75	0.0634441
1531.93	0.0589966
1533.12	0.0536513
1534.3	0.0530151
1535.49	0.0522107
1536.67	0.0472413
1537.86	0.047348
1539.04	0.0429617
1540.23	0.0473408
1541.41	0.0439055
1542.6	0.0411739
1543.78	0.0404524
1544.97	0.038794
1546.15	0.038519
1547.34	0.034622
1548.52	0.0318351
1549.71	0.0393345
1550.89	0.0393495
1552.08	0.0405039
1553.26	0.0450055
1554.45	0.0428128
1555.63	0.0370856
1556.82	0.0283852
1558	0.0283355
1559.19	0.023348
1560.37	0.0201818
1561.56	0.0177557
1562.74	0.0136525
1563.93	0.0173754
1565.11	0.0163831
1566.3	0.00848145
1567.48	0.0116136
1568.67	0.00966164
1569.85	0.00614011
1571.04	0.00737255
1572.22	0.0089934
1573.41	0.00745513
1574.59	0.00288398
1575.78	0.00507705
1576.96	0.00429433
1578.15	0.00295102
1579.33	0.00293879
1580.52	0.000556457
1581.7	0.00180257
1582.89	0.00442842
1584.07	0.00700135
1585.26	0.0105635
1586.44	0.011591
1587.63	0.0113969
1588.81	0.0122265
1590	0.0201653
1591.18	0.02338
1592.37	0.0258975
1593.55	0.0282378
1594.74	0.0328454
1595.92	0.0378589
1597.11	0.0401023
1598.29	0.0386335
1599.48	0.0359937
1600.66	0.0281908
1601.85	0.0327086
1603.03	0.0396015
1604.22	0.0448447
1605.4	0.0460762
1606.59	0.0471118
1607.77	0.0507994
1608.96	0.0508678
1610.14	0.0506832
1611.33	0.0532018
1612.51	0.0516842
1613.7	0.0515689
1614.88	0.0554948
1616.07	0.0596294
1617.25	0.0616755
1618.44	0.0609762
1619.62	0.0591544
1620.81	0.0614441
1621.99	0.0637748
1623.18	0.0627953
1624.36	0.0652225
1625.55	0.0727162
1626.73	0.0682601
1627.92	0.0617833
1629.1	0.060745
1630.29	0.0625166
1631.47	0.0648058
1632.66	0.0661603
1633.84	0.0682547
1635.03	0.06193
1636.21	0.0609043
1637.4	0.0596102
1638.58	0.0597816
1639.77	0.0501763
1640.95	0.0510582
1642.14	0.0597033
1643.32	0.0661771
1644.51	0.070423
1645.69	0.0730924
1646.88	0.0751649
1648.06	0.0811788
1649.25	0.0810391
1650.43	0.0853399
1651.62	0.0892632
1652.8	0.0958945
1653.99	0.0981543
1655.17	0.102114
1656.36	0.1028
1657.54	0.0987528
1658.73	0.0950897
1659.91	0.0994484
1661.1	0.102478
1662.28	0.106043
1663.47	0.103455
1664.65	0.102515
1665.84	0.108066
1667.02	0.11171
1668.21	0.114195
1669.39	0.112569
1670.58	0.110962
1671.76	0.118784
1672.95	0.121367
1674.13	0.122512
1675.32	0.1247
1676.5	0.117925
1677.69	0.116423
1678.87	0.115922
1680.06	0.117631
1681.24	0.113739
1682.43	0.114449
1683.61	0.109179
1684.8	0.11047
1685.98	0.111935
1687.17	0.109593
1688.35	0.104974
1689.54	0.108686
1690.72	0.107635
1691.91	0.106664
1693.09	0.107783
1694.28	0.108562
1695.46	0.111148
1696.65	0.105601
1697.83	0.107937
1699.02	0.108656
1700.2	0.108184
1701.39	0.10255
1702.57	0.102393
1703.76	0.106103
1704.94	0.105429
1706.13	0.101146
1707.31	0.102924
1708.5	0.101061
1709.68	0.0996121
1710.87	0.0955763
1712.05	0.0932037
1713.24	0.0954534
1714.42	0.0953096
1715.61	0.0932113
1716.79	0.0928923
1717.98	0.0954271
1719.16	0.0932306
1720.35	0.0924854
1721.53	0.0934625
1722.72	0.0941226
1723.9	0.0959732
1725.09	0.098225
1726.27	0.097272
1727.46	0.0964153
1728.64	0.0995411
1729.83	0.0965516
1731.01	0.0935486
1732.2	0.0973895
1733.38	0.0980129
1734.57	0.0954797
1735.75	0.0915108
1736.94	0.0914584
1738.12	0.0920235
1739.31	0.0919209
1740.49	0.0909379
1741.68	0.0898911
1742.86	0.0889331
1744.05	0.0886273
1745.23	0.0846507
1746.42	0.0897744
1747.6	0.0811184
1748.79	0.0793387
1749.97	0.0755835
1751.16	0.0758091
1752.34	0.0711194
1753.53	0.0659121
1754.71	0.0624988
1755.9	0.0599616
1757.08	0.052229
1758.27	0.0583711
1759.45	0.0528763
1760.64	0.0441646
1761.82	0.0387079
1763.01	0.0368092
1764.19	0.0355878
1765.38	0.0358222
1766.56	0.0328629
1767.74	0.0350013
1768.93	0.034349
1770.12	0.0308962
1771.3	0.0288564
1772.49	0.0260435
1773.67	0.0155225
1774.85	0.0102159
1776.04	0.0160498
1777.23	0.0133183
1778.41	0.00930458
1779.6	0.00652854
1780.78	0.01036
1781.97	0.0134644
1783.15	0.0134815
1784.34	0.00756498
1785.52	0.00947859
1786.7	0.00774024
1787.89	0.00731845
1789.08	0.00837614
1790.26	0.00984226
1791.45	0.00524529
1792.63	0.00283606
1793.81	-2.14119e-006
1795	-0.00691385
