405	-0.0105657
406.185	0.0265637
407.37	0.0634805
408.555	0.095097
409.74	0.122509
410.925	0.148182
412.11	0.17014
413.295	0.183537
414.48	0.195239
415.665	0.212314
416.85	0.219365
418.035	0.226067
419.22	0.222363
420.405	0.216159
421.59	0.214497
422.775	0.211286
423.96	0.208245
425.145	0.200347
426.33	0.182842
427.515	0.163135
428.7	0.153122
429.885	0.144311
431.07	0.130056
432.255	0.116634
433.44	0.111666
434.625	0.105323
435.81	0.102445
436.995	0.102934
438.18	0.0979697
439.365	0.104879
440.55	0.116695
441.735	0.117311
442.92	0.113237
444.105	0.108069
445.29	0.108949
446.475	0.113321
447.66	0.124426
448.845	0.133139
450.03	0.13908
451.215	0.143246
452.4	0.146309
453.585	0.156105
454.77	0.164208
455.955	0.174462
457.14	0.183946
458.325	0.196178
459.51	0.200073
460.695	0.207398
461.88	0.228203
463.065	0.249716
464.25	0.276593
465.435	0.308285
466.62	0.338163
467.805	0.368138
468.99	0.400163
470.175	0.433436
471.36	0.470785
472.545	0.513217
473.73	0.554414
474.915	0.596886
476.1	0.633396
477.285	0.671287
478.47	0.706016
479.655	0.749051
480.84	0.784252
482.025	0.811344
483.21	0.844208
484.395	0.873502
485.58	0.889432
486.765	0.912564
487.95	0.927109
489.135	0.939075
490.32	0.946967
491.505	0.948225
492.69	0.94252
493.875	0.929871
495.06	0.910889
496.245	0.899966
497.43	0.886364
498.615	0.868093
499.8	0.839337
500.985	0.815411
502.17	0.787986
503.355	0.757516
504.54	0.733652
505.725	0.711446
506.91	0.679333
508.095	0.656772
509.28	0.630985
510.465	0.611715
511.65	0.590749
512.835	0.571653
514.02	0.556382
515.205	0.540134
516.39	0.519011
517.575	0.499825
518.76	0.489096
519.945	0.49011
521.13	0.491198
522.315	0.491367
523.5	0.490182
524.685	0.483542
525.87	0.478422
527.055	0.481472
528.24	0.479807
529.425	0.482308
530.61	0.481084
531.795	0.488416
532.98	0.486034
534.164	0.496864
535.35	0.510318
536.535	0.519352
537.719	0.524886
538.905	0.52688
540.09	0.531293
541.274	0.526299
542.46	0.527111
543.644	0.519048
544.829	0.526447
546.015	0.534332
547.199	0.541032
548.385	0.543453
549.569	0.543078
550.754	0.550578
551.94	0.554396
553.124	0.5539
554.309	0.542259
555.495	0.545586
556.679	0.545875
557.864	0.547213
559.049	0.543816
560.234	0.541494
561.419	0.543666
562.604	0.537754
563.789	0.533118
564.974	0.528965
566.159	0.520974
567.344	0.501891
568.529	0.496509
569.714	0.493091
570.899	0.485182
572.084	0.47699
573.269	0.472879
574.454	0.468101
575.639	0.456048
576.824	0.46382
578.009	0.462251
579.194	0.460183
580.379	0.453817
581.564	0.456892
582.749	0.456703
583.934	0.450827
585.119	0.446915
586.304	0.448589
587.489	0.452145
588.674	0.441634
589.859	0.420996
591.044	0.419306
592.229	0.422426
593.414	0.420439
594.599	0.418379
595.784	0.415311
596.969	0.417069
598.154	0.423139
599.339	0.421365
600.524	0.416858
601.709	0.411704
602.894	0.429984
604.079	0.42043
605.264	0.422555
606.449	0.423908
607.634	0.420551
608.819	0.419448
610.004	0.421103
611.189	0.421961
612.374	0.422633
613.559	0.418521
614.744	0.411264
615.929	0.406093
617.114	0.386253
618.299	0.376938
619.484	0.37611
620.669	0.371458
621.854	0.35565
623.039	0.344483
624.224	0.341949
625.409	0.327723
626.594	0.31337
627.779	0.312027
628.964	0.309277
630.149	0.295957
631.334	0.291348
632.519	0.289887
633.704	0.290756
634.889	0.287826
636.074	0.282366
637.259	0.279224
638.444	0.275414
639.629	0.268528
640.814	0.276301
641.999	0.283977
643.184	0.279998
644.369	0.272604
645.554	0.277687
646.739	0.281181
647.924	0.286449
649.109	0.293111
650.294	0.293311
651.479	0.288817
652.664	0.289949
653.849	0.29156
655.034	0.287162
656.219	0.303031
657.404	0.303986
658.589	0.314543
659.774	0.313687
660.959	0.313815
662.144	0.326347
663.329	0.345992
664.514	0.365087
665.699	0.379613
666.884	0.388851
668.069	0.399147
669.254	0.408148
670.439	0.41937
671.624	0.422049
672.809	0.441788
673.994	0.444778
675.179	0.443178
676.364	0.450819
677.549	0.456934
678.734	0.456201
679.919	0.451735
681.104	0.44252
682.289	0.426811
683.474	0.404129
684.659	0.389561
685.844	0.376617
687.029	0.363087
688.214	0.355871
689.399	0.349185
690.584	0.344
691.769	0.329487
692.954	0.320314
694.139	0.321979
695.324	0.317355
696.509	0.301605
697.694	0.291545
698.879	0.287955
700.064	0.286387
701.249	0.279406
702.434	0.294813
703.619	0.294514
704.804	0.308105
705.989	0.300983
707.174	0.292548
708.359	0.293463
709.544	0.293367
710.729	0.28589
711.914	0.279263
713.099	0.280144
714.284	0.275192
715.469	0.285531
716.654	0.285732
717.839	0.287127
719.024	0.294687
720.209	0.301644
721.394	0.302083
722.579	0.30224
723.764	0.293782
724.949	0.299765
726.134	0.31091
727.319	0.303138
728.504	0.299771
729.689	0.311849
730.874	0.317797
732.059	0.317008
733.244	0.306511
734.429	0.297642
735.614	0.292906
736.799	0.298002
737.984	0.28993
739.169	0.284909
740.354	0.276458
741.539	0.269081
742.724	0.270928
743.909	0.269474
745.094	0.261561
746.279	0.2671
747.464	0.264835
748.649	0.250141
749.834	0.246394
751.019	0.240202
752.204	0.254335
753.389	0.260279
754.574	0.265886
755.759	0.260854
756.944	0.256746
758.129	0.257948
759.314	0.259731
760.499	0.259277
761.684	0.254594
762.869	0.246784
764.054	0.2427
765.239	0.238695
766.424	0.242311
767.609	0.245427
768.794	0.25042
769.979	0.247808
771.164	0.237154
772.349	0.225556
773.534	0.217866
774.719	0.223431
775.904	0.235867
777.089	0.23264
778.274	0.224218
779.459	0.221747
780.644	0.218572
781.829	0.219976
783.014	0.217599
784.199	0.208911
785.384	0.191332
786.569	0.186176
787.754	0.171108
788.939	0.160992
790.124	0.146008
791.309	0.140195
792.494	0.135584
793.679	0.124472
794.864	0.106449
796.049	0.102242
797.234	0.101761
798.419	0.0991552
799.604	0.102928
800.789	0.107817
801.974	0.117419
803.159	0.127349
804.344	0.152856
805.529	0.17032
806.714	0.184574
807.899	0.210201
809.084	0.241352
810.269	0.268638
811.454	0.29524
812.639	0.31511
813.823	0.337208
815.009	0.362626
816.194	0.385452
817.378	0.403984
818.564	0.423937
819.748	0.440581
820.933	0.450143
822.119	0.462267
823.303	0.464687
824.488	0.456883
825.674	0.459053
826.858	0.46115
828.044	0.446529
829.228	0.447779
830.413	0.437846
831.599	0.438724
832.783	0.452878
833.968	0.447901
835.153	0.458356
836.338	0.48163
837.523	0.496299
838.708	0.517551
839.893	0.546619
841.078	0.571095
842.263	0.60145
843.448	0.640527
844.633	0.672195
845.818	0.705755
847.003	0.747756
848.188	0.77947
849.373	0.813133
850.558	0.841679
851.743	0.851192
852.928	0.865505
854.113	0.868341
855.298	0.860492
856.483	0.859996
857.668	0.849496
858.853	0.847082
860.038	0.84194
861.223	0.832095
862.408	0.816519
863.593	0.798205
864.778	0.782355
865.963	0.761061
867.148	0.728136
868.333	0.694658
869.518	0.668104
870.703	0.645305
871.888	0.634237
873.073	0.616363
874.258	0.606559
875.443	0.58346
876.628	0.562739
877.813	0.52705
878.998	0.50894
880.183	0.488629
881.368	0.47933
882.553	0.461395
883.738	0.439309
884.923	0.422411
886.108	0.418612
887.293	0.418637
888.478	0.415507
889.663	0.407185
890.848	0.400868
892.033	0.395301
893.218	0.386951
894.403	0.388633
895.588	0.390999
896.773	0.395642
897.958	0.392226
899.143	0.394278
900.328	0.395988
901.513	0.408274
902.698	0.417278
903.883	0.437455
905.068	0.4399
906.253	0.439691
907.438	0.441096
908.623	0.449209
909.808	0.460286
910.993	0.475154
912.178	0.487139
913.363	0.498987
914.548	0.508864
915.733	0.51625
916.918	0.520961
918.103	0.520811
919.288	0.517808
920.473	0.516817
921.658	0.517452
922.843	0.517671
924.028	0.518943
925.213	0.521426
926.398	0.524523
927.583	0.520812
928.768	0.509299
929.953	0.496451
931.138	0.474942
932.323	0.447195
933.508	0.432429
934.693	0.424595
935.878	0.397898
937.063	0.383178
938.248	0.364803
939.433	0.34169
940.618	0.318387
941.803	0.304093
942.988	0.283561
944.173	0.266276
945.358	0.250565
946.543	0.24496
947.728	0.233612
948.913	0.226377
950.098	0.23516
951.283	0.238184
952.468	0.226634
953.653	0.21742
954.838	0.218358
956.023	0.224112
957.208	0.230126
958.393	0.236001
959.578	0.242186
960.763	0.248282
961.948	0.25535
963.133	0.263591
964.318	0.262536
965.503	0.260998
966.688	0.270154
967.873	0.276831
969.058	0.272357
970.243	0.279001
971.428	0.286023
972.613	0.300162
973.798	0.298232
974.983	0.298121
976.168	0.304038
977.353	0.303715
978.538	0.296564
979.723	0.297208
980.908	0.291894
982.093	0.293287
983.278	0.29415
984.463	0.290291
985.648	0.287897
986.833	0.284836
988.018	0.285414
989.203	0.288734
990.388	0.288695
991.573	0.294266
992.758	0.308464
993.943	0.318552
995.128	0.324078
996.313	0.336449
997.498	0.351184
998.683	0.360591
999.868	0.369435
1001.05	0.373215
1002.24	0.3755
1003.42	0.383873
1004.61	0.382857
1005.79	0.389122
1006.98	0.390147
1008.16	0.393528
1009.35	0.396239
1010.53	0.390388
1011.72	0.373552
1012.9	0.366208
1014.09	0.352798
1015.27	0.338876
1016.46	0.330092
1017.64	0.325638
1018.83	0.334864
1020.01	0.350494
1021.2	0.353006
1022.38	0.36331
1023.57	0.362193
1024.75	0.366674
1025.94	0.375823
1027.12	0.402001
1028.31	0.409332
1029.49	0.426983
1030.68	0.443783
1031.86	0.463333
1033.05	0.489477
1034.23	0.512064
1035.42	0.543407
1036.6	0.559814
1037.79	0.574513
1038.97	0.600035
1040.16	0.631243
1041.34	0.661161
1042.53	0.69382
1043.71	0.719516
1044.9	0.733345
1046.08	0.751618
1047.27	0.766095
1048.45	0.776028
1049.64	0.789366
1050.82	0.796127
1052.01	0.802205
1053.19	0.798943
1054.38	0.791376
1055.56	0.78899
1056.75	0.781828
1057.93	0.767396
1059.12	0.75602
1060.3	0.742964
1061.49	0.725041
1062.67	0.708551
1063.86	0.69235
1065.04	0.682685
1066.23	0.675791
1067.41	0.663936
1068.6	0.655162
1069.78	0.642986
1070.97	0.625521
1072.15	0.612155
1073.34	0.599916
1074.52	0.586913
1075.71	0.576119
1076.89	0.566265
1078.08	0.55318
1079.26	0.537476
1080.45	0.524275
1081.63	0.511713
1082.82	0.505088
1084	0.49336
1085.19	0.487287
1086.37	0.475763
1087.56	0.46681
1088.74	0.469626
1089.93	0.469158
1091.11	0.4643
1092.3	0.4592
1093.48	0.450436
1094.67	0.442156
1095.85	0.436494
1097.04	0.440363
1098.22	0.432562
1099.41	0.430422
1100.59	0.423343
1101.78	0.42235
1102.96	0.42814
1104.15	0.429101
1105.33	0.427886
1106.52	0.425612
1107.7	0.428984
1108.89	0.435566
1110.07	0.434295
1111.26	0.430258
1112.44	0.431137
1113.63	0.430218
1114.81	0.428115
1116	0.43135
1117.18	0.423416
1118.37	0.413378
1119.55	0.403308
1120.74	0.383027
1121.92	0.365085
1123.11	0.354424
1124.29	0.335667
1125.48	0.312744
1126.66	0.288116
1127.85	0.270145
1129.03	0.263706
1130.22	0.250706
1131.4	0.236988
1132.59	0.21271
1133.77	0.205143
1134.96	0.201298
1136.14	0.195731
1137.33	0.175749
1138.51	0.165961
1139.7	0.162908
1140.88	0.153208
1142.07	0.146421
1143.25	0.144902
1144.44	0.145463
1145.62	0.138069
1146.81	0.128304
1147.99	0.118126
1149.18	0.120119
1150.36	0.128892
1151.55	0.122241
1152.73	0.114671
1153.92	0.110273
1155.1	0.120291
1156.29	0.123965
1157.47	0.118024
1158.66	0.123037
1159.84	0.128833
1161.03	0.124078
1162.21	0.121822
1163.4	0.125275
1164.58	0.13301
1165.77	0.142974
1166.95	0.139194
1168.14	0.134949
1169.32	0.136078
1170.51	0.144177
1171.69	0.151472
1172.88	0.150724
1174.06	0.148791
1175.25	0.147227
1176.43	0.142664
1177.62	0.143335
1178.8	0.148062
1179.99	0.146158
1181.17	0.147457
1182.36	0.151934
1183.54	0.152926
1184.73	0.156141
1185.91	0.165552
1187.1	0.170727
1188.28	0.170122
1189.47	0.175394
1190.65	0.179279
1191.84	0.188063
1193.02	0.20419
1194.21	0.214497
1195.39	0.223651
1196.58	0.232075
1197.76	0.243038
1198.95	0.246285
1200.13	0.242496
1201.32	0.24851
1202.5	0.25154
1203.69	0.251106
1204.87	0.263697
1206.06	0.275252
1207.24	0.277056
1208.43	0.275448
1209.61	0.283518
1210.8	0.281947
1211.98	0.287037
1213.17	0.282913
1214.35	0.281663
1215.54	0.28608
1216.72	0.282627
1217.91	0.287427
1219.09	0.286233
1220.28	0.287547
1221.46	0.290045
1222.65	0.281336
1223.83	0.278904
1225.02	0.287278
1226.2	0.30097
1227.39	0.306623
1228.57	0.308511
1229.76	0.31303
1230.94	0.327169
1232.13	0.339619
1233.31	0.348131
1234.5	0.359721
1235.68	0.369528
1236.87	0.380754
1238.05	0.39305
1239.24	0.407072
1240.42	0.426201
1241.61	0.445587
1242.79	0.46165
1243.98	0.467732
1245.16	0.473512
1246.35	0.482656
1247.53	0.487964
1248.72	0.496932
1249.9	0.508501
1251.09	0.522814
1252.27	0.529155
1253.46	0.532417
1254.64	0.533371
1255.83	0.536518
1257.01	0.530235
1258.2	0.526721
1259.38	0.512483
1260.57	0.515021
1261.75	0.523499
1262.94	0.530539
1264.12	0.534638
1265.31	0.536313
1266.49	0.53638
1267.68	0.5357
1268.86	0.523942
1270.05	0.525339
1271.23	0.523934
1272.42	0.529833
1273.6	0.524445
1274.79	0.529233
1275.97	0.524543
1277.16	0.527162
1278.34	0.528183
1279.53	0.52159
1280.71	0.514738
1281.9	0.515963
1283.08	0.518055
1284.27	0.51844
1285.45	0.520861
1286.64	0.52114
1287.82	0.52023
1289.01	0.520384
1290.19	0.523418
1291.38	0.521314
1292.56	0.515332
1293.75	0.513301
1294.93	0.497335
1296.12	0.487371
1297.3	0.491355
1298.49	0.492587
1299.67	0.490269
1300.86	0.483896
1302.04	0.476757
1303.23	0.480208
1304.41	0.472427
1305.6	0.47355
1306.78	0.463397
1307.97	0.466179
1309.15	0.466277
1310.34	0.474558
1311.52	0.478138
1312.71	0.484166
1313.89	0.481761
1315.08	0.474996
1316.26	0.47706
1317.45	0.482201
1318.63	0.48378
1319.82	0.479414
1321	0.482597
1322.19	0.492277
1323.37	0.497313
1324.56	0.498125
1325.74	0.49917
1326.93	0.494296
1328.11	0.498167
1329.3	0.496013
1330.48	0.500758
1331.67	0.502256
1332.85	0.499741
1334.04	0.479814
1335.22	0.481339
1336.41	0.476454
1337.59	0.474333
1338.78	0.462725
1339.96	0.455197
1341.15	0.453092
1342.33	0.450028
1343.52	0.456265
1344.7	0.462819
1345.89	0.459039
1347.07	0.456367
1348.26	0.453216
1349.44	0.451862
1350.63	0.45712
1351.81	0.452976
1353	0.451683
1354.18	0.453109
1355.37	0.45565
1356.55	0.457032
1357.74	0.452179
1358.92	0.44702
1360.11	0.434774
1361.29	0.421462
1362.48	0.412792
1363.66	0.412037
1364.85	0.401676
1366.03	0.398951
1367.22	0.395341
1368.4	0.389492
1369.59	0.389566
1370.77	0.3876
1371.96	0.385328
1373.14	0.384488
1374.33	0.38438
1375.51	0.386895
1376.7	0.39636
1377.88	0.399793
1379.07	0.399063
1380.25	0.402002
1381.44	0.40635
1382.62	0.411206
1383.81	0.411257
1384.99	0.415251
1386.18	0.411438
1387.36	0.403831
1388.55	0.400952
1389.73	0.394979
1390.92	0.390818
1392.1	0.395762
1393.29	0.386613
1394.47	0.385383
1395.66	0.390538
1396.84	0.394585
1398.03	0.394473
1399.21	0.397143
1400.4	0.391765
1401.58	0.388654
1402.77	0.392253
1403.95	0.401869
1405.14	0.399212
1406.32	0.40842
1407.51	0.414127
1408.69	0.415079
1409.88	0.421058
1411.06	0.42125
1412.25	0.416339
1413.43	0.409673
1414.62	0.412047
1415.8	0.413715
1416.99	0.416043
1418.17	0.422566
1419.36	0.424699
1420.54	0.422217
1421.73	0.42309
1422.91	0.420665
1424.1	0.421939
1425.28	0.41149
1426.47	0.413483
1427.65	0.414057
1428.84	0.416155
1430.02	0.419142
1431.21	0.415721
1432.39	0.414027
1433.58	0.41509
1434.76	0.41109
1435.95	0.406414
1437.13	0.407007
1438.32	0.414756
1439.5	0.422313
1440.69	0.422838
1441.87	0.423865
1443.06	0.427921
1444.24	0.44034
1445.43	0.45451
1446.61	0.476146
1447.8	0.491686
1448.98	0.510112
1450.17	0.525657
1451.35	0.544641
1452.54	0.566221
1453.72	0.585577
1454.91	0.595986
1456.09	0.611785
1457.28	0.627721
1458.46	0.655868
1459.65	0.670651
1460.83	0.673968
1462.02	0.682672
1463.2	0.679269
1464.39	0.680646
1465.57	0.672508
1466.76	0.666515
1467.94	0.663121
1469.13	0.651846
1470.31	0.640417
1471.5	0.628529
1472.68	0.608487
1473.87	0.588803
1475.05	0.564799
1476.24	0.548158
1477.42	0.527205
1478.61	0.503601
1479.79	0.480324
1480.98	0.458965
1482.16	0.439706
1483.35	0.4198
1484.53	0.397426
1485.72	0.378312
1486.9	0.360382
1488.09	0.349625
1489.27	0.341137
1490.46	0.332599
1491.64	0.318821
1492.83	0.304903
1494.01	0.300485
1495.2	0.286911
1496.38	0.282791
1497.57	0.272575
1498.75	0.265272
1499.94	0.260064
1501.12	0.256861
1502.31	0.25631
1503.49	0.251369
1504.68	0.246318
1505.86	0.243004
1507.05	0.239882
1508.23	0.237795
1509.42	0.234791
1510.6	0.228376
1511.79	0.22916
1512.97	0.230396
1514.16	0.235073
1515.34	0.238527
1516.53	0.237322
1517.71	0.23409
1518.9	0.230959
1520.08	0.233152
1521.27	0.224296
1522.45	0.215581
1523.64	0.216824
1524.82	0.214094
1526.01	0.212764
1527.19	0.215227
1528.38	0.214783
1529.56	0.202859
1530.75	0.193359
1531.93	0.187333
1533.12	0.185084
1534.3	0.176193
1535.49	0.170852
1536.67	0.163043
1537.86	0.1685
1539.04	0.170392
1540.23	0.162656
1541.41	0.158195
1542.6	0.154399
1543.78	0.154188
1544.97	0.154796
1546.15	0.1619
1547.34	0.167061
1548.52	0.165384
1549.71	0.162
1550.89	0.171162
1552.08	0.170615
1553.26	0.173609
1554.45	0.172799
1555.63	0.171251
1556.82	0.173637
1558	0.173056
1559.19	0.167334
1560.37	0.15788
1561.56	0.153703
1562.74	0.147106
1563.93	0.142366
1565.11	0.140251
1566.3	0.135534
1567.48	0.132534
1568.67	0.129499
1569.85	0.124615
1571.04	0.122998
1572.22	0.118818
1573.41	0.113024
1574.59	0.11257
1575.78	0.112069
1576.96	0.109261
1578.15	0.111316
1579.33	0.1114
1580.52	0.115559
1581.7	0.12062
1582.89	0.120938
1584.07	0.119091
1585.26	0.121128
1586.44	0.121002
1587.63	0.120716
1588.81	0.12453
1590	0.125196
1591.18	0.131118
1592.37	0.134624
1593.55	0.136524
1594.74	0.135871
1595.92	0.136476
1597.11	0.135815
1598.29	0.136242
1599.48	0.13906
1600.66	0.144911
1601.85	0.142663
1603.03	0.14351
1604.22	0.144343
1605.4	0.145598
1606.59	0.142606
1607.77	0.140001
1608.96	0.139868
1610.14	0.142751
1611.33	0.147245
1612.51	0.148136
1613.7	0.146847
1614.88	0.14348
1616.07	0.143897
1617.25	0.141274
1618.44	0.143306
1619.62	0.146076
1620.81	0.143974
1621.99	0.14423
1623.18	0.145361
1624.36	0.149403
1625.55	0.151155
1626.73	0.147318
1627.92	0.145259
1629.1	0.148328
1630.29	0.150814
1631.47	0.155284
1632.66	0.156187
1633.84	0.157404
1635.03	0.155237
1636.21	0.159538
1637.4	0.163468
1638.58	0.159469
1639.77	0.151588
1640.95	0.154548
1642.14	0.158244
1643.32	0.155232
1644.51	0.149816
1645.69	0.152937
1646.88	0.148352
1648.06	0.15102
1649.25	0.153893
1650.43	0.151122
1651.62	0.147797
1652.8	0.151141
1653.99	0.153701
1655.17	0.158084
1656.36	0.162754
1657.54	0.161319
1658.73	0.164049
1659.91	0.170495
1661.1	0.172591
1662.28	0.171367
1663.47	0.171249
1664.65	0.170285
1665.84	0.170329
1667.02	0.175055
1668.21	0.174582
1669.39	0.169715
1670.58	0.170505
1671.76	0.171257
1672.95	0.164044
1674.13	0.163645
1675.32	0.157137
1676.5	0.157967
1677.69	0.158059
1678.87	0.15646
1680.06	0.157999
1681.24	0.153927
1682.43	0.152868
1683.61	0.156211
1684.8	0.158354
1685.98	0.156014
1687.17	0.157491
1688.35	0.1568
1689.54	0.157098
1690.72	0.161059
1691.91	0.166065
1693.09	0.165335
1694.28	0.170242
1695.46	0.168886
1696.65	0.166112
1697.83	0.166719
1699.02	0.162923
1700.2	0.158326
1701.39	0.160288
1702.57	0.161198
1703.76	0.160378
1704.94	0.160822
1706.13	0.155034
1707.31	0.151857
1708.5	0.13953
1709.68	0.132263
1710.87	0.127386
1712.05	0.122771
1713.24	0.122419
1714.42	0.121475
1715.61	0.122506
1716.79	0.121863
1717.98	0.11147
1719.16	0.115086
1720.35	0.115992
1721.53	0.117113
1722.72	0.116067
1723.9	0.116103
1725.09	0.120414
1726.27	0.12309
1727.46	0.124385
1728.64	0.123046
1729.83	0.126395
1731.01	0.128236
1732.2	0.12856
1733.38	0.131292
1734.57	0.131209
1735.75	0.131797
1736.94	0.127552
1738.12	0.132064
1739.31	0.132301
1740.49	0.129921
1741.68	0.126786
1742.86	0.132116
1744.05	0.141696
1745.23	0.14076
1746.42	0.136832
1747.6	0.126631
1748.79	0.126649
1749.97	0.122634
1751.16	0.126453
1752.34	0.123136
1753.53	0.124142
1754.71	0.125456
1755.9	0.1319
1757.08	0.135386
1758.27	0.136427
1759.45	0.125833
1760.64	0.125818
1761.82	0.128153
1763.01	0.13044
1764.19	0.134057
1765.38	0.135199
1766.56	0.129928
1767.74	0.128981
1768.93	0.132778
1770.12	0.131855
1771.3	0.125703
1772.49	0.125456
1773.67	0.125662
1774.85	0.127657
1776.04	0.120289
1777.23	0.121407
1778.41	0.12163
1779.6	0.120417
1780.78	0.120627
1781.97	0.120613
1783.15	0.120615
1784.34	0.118627
1785.52	0.116834
1786.7	0.121048
1787.89	0.114423
1789.08	0.110014
1790.26	0.10772
1791.45	0.111279
1792.63	0.110484
1793.81	0.109331
1795	0.109463
