405	0.271829
406.185	0.277597
407.37	0.277296
408.555	0.284253
409.74	0.292583
410.925	0.300097
412.11	0.310166
413.295	0.324122
414.48	0.335081
415.665	0.32856
416.85	0.329554
418.035	0.32672
419.22	0.317886
420.405	0.311689
421.59	0.312665
422.775	0.312902
423.96	0.302115
425.145	0.283917
426.33	0.277146
427.515	0.251925
428.7	0.223548
429.885	0.204431
431.07	0.188151
432.255	0.160916
433.44	0.127299
434.625	0.110418
435.81	0.0993709
436.995	0.0855347
438.18	0.0758045
439.365	0.0723296
440.55	0.0622683
441.735	0.0424968
442.92	0.0324456
444.105	0.0223754
445.29	0.00953456
446.475	0.0136941
447.66	0.0168664
448.845	0.0171114
450.03	0.0135603
451.215	0.0136337
452.4	0.0256385
453.585	0.0371216
454.77	0.0303201
455.955	0.0296177
457.14	0.0506934
458.325	0.0678366
459.51	0.0739531
460.695	0.0899977
461.88	0.120042
463.065	0.138683
464.25	0.166436
465.435	0.21021
466.62	0.242305
467.805	0.271168
468.99	0.316113
470.175	0.356459
471.36	0.389448
472.545	0.428842
473.73	0.470965
474.915	0.520646
476.1	0.5598
477.285	0.590486
478.47	0.623035
479.655	0.675898
480.84	0.730386
482.025	0.778652
483.21	0.828919
484.395	0.871314
485.58	0.893258
486.765	0.89757
487.95	0.913858
489.135	0.925665
490.32	0.939626
491.505	0.941436
492.69	0.929273
493.875	0.917081
495.06	0.905935
496.245	0.88881
497.43	0.871277
498.615	0.832783
499.8	0.800155
500.985	0.757671
502.17	0.705113
503.355	0.654079
504.54	0.611639
505.725	0.575068
506.91	0.544993
508.095	0.509655
509.28	0.46662
510.465	0.436465
511.65	0.407388
512.835	0.385823
514.02	0.36726
515.205	0.351916
516.39	0.345802
517.575	0.321454
518.76	0.344393
519.945	0.323963
521.13	0.316938
522.315	0.324943
523.5	0.317549
524.685	0.298629
525.87	0.283525
527.055	0.277173
528.24	0.282173
529.425	0.291652
530.61	0.296934
531.795	0.303733
532.98	0.299536
534.164	0.289677
535.35	0.281757
536.535	0.282829
537.719	0.28618
538.905	0.280807
540.09	0.282639
541.274	0.288951
542.46	0.291165
543.644	0.301574
544.829	0.323052
546.015	0.345614
547.199	0.350456
548.385	0.338905
549.569	0.323288
550.754	0.310598
551.94	0.316188
553.124	0.318176
554.309	0.343252
555.495	0.33733
556.679	0.331319
557.864	0.31817
559.049	0.302043
560.234	0.288885
561.419	0.277006
562.604	0.265647
563.789	0.263497
564.974	0.266294
566.159	0.255264
567.344	0.271466
568.529	0.263756
569.714	0.260577
570.899	0.253621
572.084	0.241199
573.269	0.223401
574.454	0.20008
575.639	0.210889
576.824	0.201616
578.009	0.198513
579.194	0.198695
580.379	0.206454
581.564	0.21394
582.749	0.214316
583.934	0.212192
585.119	0.205779
586.304	0.187376
587.489	0.169446
588.674	0.179683
589.859	0.190705
591.044	0.193352
592.229	0.193114
593.414	0.199421
594.599	0.202083
595.784	0.204626
596.969	0.206928
598.154	0.206429
599.339	0.206287
600.524	0.203528
601.709	0.199726
602.894	0.207054
604.079	0.199358
605.264	0.201819
606.449	0.205767
607.634	0.198622
608.819	0.189405
610.004	0.188531
611.189	0.196699
612.374	0.205182
613.559	0.193557
614.744	0.175878
615.929	0.159163
617.114	0.155734
618.299	0.147527
619.484	0.140282
620.669	0.13804
621.854	0.128684
623.039	0.114798
624.224	0.107106
625.409	0.100179
626.594	0.0892583
627.779	0.0935772
628.964	0.0924797
630.149	0.0836298
631.334	0.0610321
632.519	0.0586936
633.704	0.0585355
634.889	0.0553827
636.074	0.0528474
637.259	0.0529016
638.444	0.056354
639.629	0.0602138
640.814	0.0548643
641.999	0.0538256
643.184	0.0333942
644.369	0.00859519
645.554	0.022513
646.739	0.0258015
647.924	0.0146492
649.109	0.0153025
650.294	0.0318571
651.479	0.0479349
652.664	0.0566814
653.849	0.0637548
655.034	0.0820943
656.219	0.0969558
657.404	0.10511
658.589	0.0917484
659.774	0.0890912
660.959	0.0962587
662.144	0.106609
663.329	0.124322
664.514	0.133874
665.699	0.138486
666.884	0.165205
668.069	0.184137
669.254	0.18183
670.439	0.17654
671.624	0.177995
672.809	0.184024
673.994	0.185809
675.179	0.182571
676.364	0.175731
677.549	0.185305
678.734	0.199362
679.919	0.200587
681.104	0.203057
682.289	0.216734
683.474	0.223846
684.659	0.226508
685.844	0.208058
687.029	0.186642
688.214	0.180243
689.399	0.165211
690.584	0.155242
691.769	0.1482
692.954	0.138239
694.139	0.130155
695.324	0.131924
696.509	0.131349
697.694	0.107982
698.879	0.0970134
700.064	0.0864803
701.249	0.0853411
702.434	0.0846698
703.619	0.082991
704.804	0.0888155
705.989	0.0862131
707.174	0.0782977
708.359	0.074359
709.544	0.0737396
710.729	0.0682818
711.914	0.0612123
713.099	0.0624717
714.284	0.0547172
715.469	0.058633
716.654	0.0797106
717.839	0.074619
719.024	0.0793025
720.209	0.0648066
721.394	0.0567849
722.579	0.0571789
723.764	0.0526568
724.949	0.0581564
726.134	0.0738299
727.319	0.0919099
728.504	0.115238
729.689	0.122017
730.874	0.126824
732.059	0.127061
733.244	0.139044
734.429	0.134671
735.614	0.133027
736.799	0.131335
737.984	0.127369
739.169	0.139061
740.354	0.146814
741.539	0.139115
742.724	0.128993
743.909	0.126425
745.094	0.129146
746.279	0.133098
747.464	0.124812
748.649	0.102546
749.834	0.104819
751.019	0.0885499
752.204	0.0839318
753.389	0.0712574
754.574	0.0541924
755.759	0.0503154
756.944	0.0490043
758.129	0.0404381
759.314	0.0417401
760.499	0.0576449
761.684	0.0706321
762.869	0.0677221
764.054	0.0540275
765.239	0.0565665
766.424	0.0378366
767.609	0.0541268
768.794	0.0540264
769.979	0.0639884
771.164	0.0624152
772.349	0.0612218
773.534	0.0615731
774.719	0.0775738
775.904	0.0987181
777.089	0.105188
778.274	0.0945747
779.459	0.0787233
780.644	0.0719588
781.829	0.0750225
783.014	0.06187
784.199	0.0308408
785.384	0.0345191
786.569	0.0311441
787.754	0.030658
788.939	0.0267483
790.124	0.0214109
791.309	0.0301742
792.494	0.032643
793.679	0.02559
794.864	0.00669618
796.049	-0.00733175
797.234	-0.0105657
798.419	-0.00757244
799.604	-0.00253003
800.789	0.00658129
801.974	0.0295179
803.159	0.0514176
804.344	0.0753661
805.529	0.0859516
806.714	0.0960243
807.899	0.125995
809.084	0.157479
810.269	0.178654
811.454	0.205316
812.639	0.233577
813.823	0.252838
815.009	0.28191
816.194	0.316925
817.378	0.337017
818.564	0.352416
819.748	0.369217
820.933	0.375633
822.119	0.380303
823.303	0.381531
824.488	0.386382
825.674	0.385339
826.858	0.377768
828.044	0.367544
829.228	0.359553
830.413	0.351971
831.599	0.342883
832.783	0.370937
833.968	0.379801
835.153	0.394524
836.338	0.421487
837.523	0.452754
838.708	0.490027
839.893	0.532914
841.078	0.57787
842.263	0.620869
843.448	0.66093
844.633	0.705
845.818	0.749393
847.003	0.792863
848.188	0.84436
849.373	0.893278
850.558	0.920847
851.743	0.932261
852.928	0.944955
854.113	0.943449
855.298	0.948225
856.483	0.94041
857.668	0.927972
858.853	0.91286
860.038	0.88537
861.223	0.871894
862.408	0.859902
863.593	0.838673
864.778	0.815442
865.963	0.785726
867.148	0.753027
868.333	0.729493
869.518	0.712798
870.703	0.685232
871.888	0.655616
873.073	0.630441
874.258	0.611905
875.443	0.591839
876.628	0.57489
877.813	0.546041
878.998	0.527635
880.183	0.507436
881.368	0.482589
882.553	0.465398
883.738	0.453571
884.923	0.43865
886.108	0.421632
887.293	0.397721
888.478	0.381602
889.663	0.383068
890.848	0.388318
892.033	0.392232
893.218	0.398748
894.403	0.405778
895.588	0.417008
896.773	0.42128
897.958	0.416824
899.143	0.415944
900.328	0.439133
901.513	0.456696
902.698	0.48583
903.883	0.501637
905.068	0.518055
906.253	0.543362
907.438	0.562947
908.623	0.574714
909.808	0.580318
910.993	0.571146
912.178	0.576141
913.363	0.582447
914.548	0.591088
915.733	0.619562
916.918	0.645708
918.103	0.649171
919.288	0.646161
920.473	0.638754
921.658	0.630569
922.843	0.631754
924.028	0.622608
925.213	0.608653
926.398	0.588841
927.583	0.585942
928.768	0.58009
929.953	0.566543
931.138	0.543435
932.323	0.514043
933.508	0.503427
934.693	0.469144
935.878	0.421783
937.063	0.40088
938.248	0.380565
939.433	0.357868
940.618	0.328168
941.803	0.298757
942.988	0.272119
944.173	0.262714
945.358	0.239385
946.543	0.221135
947.728	0.215636
948.913	0.209206
950.098	0.213025
951.283	0.212021
952.468	0.203956
953.653	0.208903
954.838	0.21711
956.023	0.213188
957.208	0.214458
958.393	0.231173
959.578	0.24101
960.763	0.25161
961.948	0.260458
963.133	0.276621
964.318	0.286953
965.503	0.28487
966.688	0.279974
967.873	0.277576
969.058	0.263652
970.243	0.27758
971.428	0.292557
972.613	0.319365
973.798	0.341707
974.983	0.358215
976.168	0.357034
977.353	0.360703
978.538	0.362247
979.723	0.362492
980.908	0.36217
982.093	0.362036
983.278	0.367976
984.463	0.37955
985.648	0.37775
986.833	0.382128
988.018	0.380981
989.203	0.370688
990.388	0.34555
991.573	0.324267
992.758	0.319302
993.943	0.321349
995.128	0.317897
996.313	0.309794
997.498	0.315002
998.683	0.325489
999.868	0.331123
1001.05	0.341422
1002.24	0.34049
1003.42	0.334508
1004.61	0.337273
1005.79	0.346079
1006.98	0.354739
1008.16	0.369201
1009.35	0.398603
1010.53	0.406531
1011.72	0.394742
1012.9	0.383096
1014.09	0.388646
1015.27	0.397021
1016.46	0.388693
1017.64	0.387052
1018.83	0.386208
1020.01	0.386994
1021.2	0.381186
1022.38	0.402927
1023.57	0.406338
1024.75	0.414068
1025.94	0.434011
1027.12	0.439248
1028.31	0.44456
1029.49	0.461437
1030.68	0.487711
1031.86	0.513853
1033.05	0.539986
1034.23	0.563412
1035.42	0.592915
1036.6	0.62075
1037.79	0.647323
1038.97	0.692911
1040.16	0.71273
1041.34	0.747053
1042.53	0.766847
1043.71	0.778685
1044.9	0.797
1046.08	0.818048
1047.27	0.833366
1048.45	0.845321
1049.64	0.861397
1050.82	0.864425
1052.01	0.86684
1053.19	0.871214
1054.38	0.871907
1055.56	0.862893
1056.75	0.84067
1057.93	0.834428
1059.12	0.824009
1060.3	0.805898
1061.49	0.794594
1062.67	0.77683
1063.86	0.757121
1065.04	0.741079
1066.23	0.720575
1067.41	0.686299
1068.6	0.653548
1069.78	0.636069
1070.97	0.60935
1072.15	0.571473
1073.34	0.553728
1074.52	0.552737
1075.71	0.545433
1076.89	0.524272
1078.08	0.511105
1079.26	0.502755
1080.45	0.494766
1081.63	0.48431
1082.82	0.474114
1084	0.463754
1085.19	0.456858
1086.37	0.458404
1087.56	0.45154
1088.74	0.439604
1089.93	0.451489
1091.11	0.458081
1092.3	0.458165
1093.48	0.448282
1094.67	0.448283
1095.85	0.451147
1097.04	0.441736
1098.22	0.419842
1099.41	0.409048
1100.59	0.408735
1101.78	0.415188
1102.96	0.428563
1104.15	0.432077
1105.33	0.436261
1106.52	0.433324
1107.7	0.432196
1108.89	0.424843
1110.07	0.41476
1111.26	0.416446
1112.44	0.404321
1113.63	0.391558
1114.81	0.383608
1116	0.383236
1117.18	0.373602
1118.37	0.345171
1119.55	0.338201
1120.74	0.312963
1121.92	0.292174
1123.11	0.276153
1124.29	0.274536
1125.48	0.24908
1126.66	0.2279
1127.85	0.191822
1129.03	0.166809
1130.22	0.165983
1131.4	0.154633
1132.59	0.137905
1133.77	0.113241
1134.96	0.0965481
1136.14	0.0993003
1137.33	0.0798447
1138.51	0.0761872
1139.7	0.0716698
1140.88	0.0681896
1142.07	0.0593992
1143.25	0.0575264
1144.44	0.0573347
1145.62	0.0678632
1146.81	0.0777481
1147.99	0.0681226
1149.18	0.0531615
1150.36	0.0528761
1151.55	0.0689757
1152.73	0.0823051
1153.92	0.0833183
1155.1	0.0814777
1156.29	0.0800528
1157.47	0.0767588
1158.66	0.0709843
1159.84	0.0693433
1161.03	0.0637735
1162.21	0.0532498
1163.4	0.0515921
1164.58	0.0417667
1165.77	0.0397289
1166.95	0.0411414
1168.14	0.033858
1169.32	0.0210434
1170.51	0.00897169
1171.69	0.011694
1172.88	0.0170556
1174.06	0.0151023
1175.25	0.0161209
1176.43	0.0144044
1177.62	0.0134904
1178.8	0.0216113
1179.99	0.0269961
1181.17	0.0307736
1182.36	0.0331159
1183.54	0.0308386
1184.73	0.0402566
1185.91	0.046639
1187.1	0.0460272
1188.28	0.0432
1189.47	0.0348196
1190.65	0.0316413
1191.84	0.0302347
1193.02	0.0385879
1194.21	0.0473752
1195.39	0.0461884
1196.58	0.0507631
1197.76	0.053407
1198.95	0.0505056
1200.13	0.058937
1201.32	0.0628735
1202.5	0.0600978
1203.69	0.0719669
1204.87	0.0938035
1206.06	0.109289
1207.24	0.121367
1208.43	0.131775
1209.61	0.142923
1210.8	0.144958
1211.98	0.1455
1213.17	0.158969
1214.35	0.154629
1215.54	0.157556
1216.72	0.173687
1217.91	0.173378
1219.09	0.171324
1220.28	0.171129
1221.46	0.17471
1222.65	0.154506
1223.83	0.158276
1225.02	0.157062
1226.2	0.164585
1227.39	0.172791
1228.57	0.176799
1229.76	0.195119
1230.94	0.213008
1232.13	0.226733
1233.31	0.241145
1234.5	0.249678
1235.68	0.269794
1236.87	0.295904
1238.05	0.322081
1239.24	0.339837
1240.42	0.357289
1241.61	0.365903
1242.79	0.369354
1243.98	0.369991
1245.16	0.385239
1246.35	0.393409
1247.53	0.390682
1248.72	0.389502
1249.9	0.400259
1251.09	0.408447
1252.27	0.405668
1253.46	0.40049
1254.64	0.396211
1255.83	0.397378
1257.01	0.403918
1258.2	0.414382
1259.38	0.413506
1260.57	0.428669
1261.75	0.419028
1262.94	0.408026
1264.12	0.404258
1265.31	0.399739
1266.49	0.398911
1267.68	0.391919
1268.86	0.384229
1270.05	0.3944
1271.23	0.405625
1272.42	0.389759
1273.6	0.38137
1274.79	0.369335
1275.97	0.358154
1277.16	0.364111
1278.34	0.361285
1279.53	0.356202
1280.71	0.360265
1281.9	0.352801
1283.08	0.352497
1284.27	0.351161
1285.45	0.357101
1286.64	0.355496
1287.82	0.342957
1289.01	0.347977
1290.19	0.357262
1291.38	0.361174
1292.56	0.373181
1293.75	0.367623
1294.93	0.35937
1296.12	0.374721
1297.3	0.3778
1298.49	0.386617
1299.67	0.38222
1300.86	0.384348
1302.04	0.372886
1303.23	0.362716
1304.41	0.352676
1305.6	0.364112
1306.78	0.341553
1307.97	0.344608
1309.15	0.34598
1310.34	0.348573
1311.52	0.346916
1312.71	0.34424
1313.89	0.327537
1315.08	0.31774
1316.26	0.314351
1317.45	0.322967
1318.63	0.330669
1319.82	0.337261
1321	0.343573
1322.19	0.340312
1323.37	0.339512
1324.56	0.334595
1325.74	0.326548
1326.93	0.319904
1328.11	0.312745
1329.3	0.29778
1330.48	0.301311
1331.67	0.300758
1332.85	0.30893
1334.04	0.308194
1335.22	0.300098
1336.41	0.288299
1337.59	0.276656
1338.78	0.270197
1339.96	0.265665
1341.15	0.262101
1342.33	0.262387
1343.52	0.249124
1344.7	0.243061
1345.89	0.254669
1347.07	0.253747
1348.26	0.252195
1349.44	0.251319
1350.63	0.251188
1351.81	0.253002
1353	0.25527
1354.18	0.259624
1355.37	0.265096
1356.55	0.275383
1357.74	0.277371
1358.92	0.272427
1360.11	0.279378
1361.29	0.279875
1362.48	0.279798
1363.66	0.274177
1364.85	0.275465
1366.03	0.275872
1367.22	0.266864
1368.4	0.256858
1369.59	0.249209
1370.77	0.241625
1371.96	0.237
1373.14	0.224861
1374.33	0.218942
1375.51	0.212136
1376.7	0.210644
1377.88	0.221922
1379.07	0.220408
1380.25	0.220191
1381.44	0.222298
1382.62	0.215
1383.81	0.209427
1384.99	0.219707
1386.18	0.222727
1387.36	0.235536
1388.55	0.245559
1389.73	0.249042
1390.92	0.251008
1392.1	0.26782
1393.29	0.278234
1394.47	0.279293
1395.66	0.282335
1396.84	0.289049
1398.03	0.282414
1399.21	0.273747
1400.4	0.284006
1401.58	0.274829
1402.77	0.271864
1403.95	0.283886
1405.14	0.272027
1406.32	0.285687
1407.51	0.286273
1408.69	0.269972
1409.88	0.258117
1411.06	0.252793
1412.25	0.241828
1413.43	0.232147
1414.62	0.241061
1415.8	0.25311
1416.99	0.250857
1418.17	0.254608
1419.36	0.254493
1420.54	0.232212
1421.73	0.226184
1422.91	0.20723
1424.1	0.199604
1425.28	0.206943
1426.47	0.199155
1427.65	0.199001
1428.84	0.20753
1430.02	0.221618
1431.21	0.226879
1432.39	0.231568
1433.58	0.230311
1434.76	0.222455
1435.95	0.216801
1437.13	0.229223
1438.32	0.236314
1439.5	0.241282
1440.69	0.251218
1441.87	0.250063
1443.06	0.272271
1444.24	0.30307
1445.43	0.315996
1446.61	0.32731
1447.8	0.33631
1448.98	0.346605
1450.17	0.362571
1451.35	0.389462
1452.54	0.413054
1453.72	0.433278
1454.91	0.453019
1456.09	0.477114
1457.28	0.504713
1458.46	0.539726
1459.65	0.565128
1460.83	0.564237
1462.02	0.570619
1463.2	0.578198
1464.39	0.587156
1465.57	0.586072
1466.76	0.591148
1467.94	0.595824
1469.13	0.594213
1470.31	0.581856
1471.5	0.568847
1472.68	0.557145
1473.87	0.531349
1475.05	0.497847
1476.24	0.452157
1477.42	0.434171
1478.61	0.41558
1479.79	0.395933
1480.98	0.364623
1482.16	0.350809
1483.35	0.33225
1484.53	0.299645
1485.72	0.274468
1486.9	0.255062
1488.09	0.23136
1489.27	0.203075
1490.46	0.191923
1491.64	0.185316
1492.83	0.185646
1494.01	0.166618
1495.2	0.151986
1496.38	0.141836
1497.57	0.136359
1498.75	0.123465
1499.94	0.113445
1501.12	0.105737
1502.31	0.0934306
1503.49	0.0845507
1504.68	0.093231
1505.86	0.0948931
1507.05	0.0859205
1508.23	0.0770318
1509.42	0.0797443
1510.6	0.0791357
1511.79	0.0680561
1512.97	0.063776
1514.16	0.0714996
1515.34	0.0711354
1516.53	0.0657813
1517.71	0.0688616
1518.9	0.0809225
1520.08	0.0800554
1521.27	0.073234
1522.45	0.074542
1523.64	0.0740411
1524.82	0.0711252
1526.01	0.0679164
1527.19	0.05763
1528.38	0.0612863
1529.56	0.0528488
1530.75	0.0376662
1531.93	0.0318647
1533.12	0.0430306
1534.3	0.0408152
1535.49	0.0289631
1536.67	0.0340817
1537.86	0.0242594
1539.04	0.0163942
1540.23	0.0139099
1541.41	0.0165053
1542.6	0.0152854
1543.78	0.0173531
1544.97	0.0163178
1546.15	0.0225644
1547.34	0.0282028
1548.52	0.0324754
1549.71	0.0198713
1550.89	0.0187297
1552.08	0.0255695
1553.26	0.0239718
1554.45	0.0258232
1555.63	0.0325768
1556.82	0.0315636
1558	0.0316069
1559.19	0.0311006
1560.37	0.0317762
1561.56	0.0280232
1562.74	0.0201315
1563.93	0.0196549
1565.11	0.0188791
1566.3	0.0299435
1567.48	0.0381194
1568.67	0.0386598
1569.85	0.038854
1571.04	0.0400661
1572.22	0.0454526
1573.41	0.0470311
1574.59	0.0477465
1575.78	0.0484851
1576.96	0.0526897
1578.15	0.0592891
1579.33	0.0637565
1580.52	0.0632587
1581.7	0.0593783
1582.89	0.0528984
1584.07	0.0482389
1585.26	0.0506455
1586.44	0.0530489
1587.63	0.0550701
1588.81	0.055678
1590	0.056611
1591.18	0.0631993
1592.37	0.0689017
1593.55	0.0620991
1594.74	0.0608592
1595.92	0.0657959
1597.11	0.0715635
1598.29	0.0737374
1599.48	0.0781836
1600.66	0.0828992
1601.85	0.0807421
1603.03	0.086777
1604.22	0.0939438
1605.4	0.0995152
1606.59	0.104751
1607.77	0.108781
1608.96	0.119226
1610.14	0.133078
1611.33	0.13781
1612.51	0.141007
1613.7	0.140956
1614.88	0.141341
1616.07	0.136814
1617.25	0.138099
1618.44	0.141437
1619.62	0.145344
1620.81	0.144545
1621.99	0.1413
1623.18	0.133872
1624.36	0.135635
1625.55	0.132173
1626.73	0.135701
1627.92	0.137957
1629.1	0.130235
1630.29	0.128799
1631.47	0.129996
1632.66	0.132539
1633.84	0.139998
1635.03	0.132812
1636.21	0.13435
1637.4	0.143729
1638.58	0.142069
1639.77	0.144633
1640.95	0.151752
1642.14	0.141763
1643.32	0.140897
1644.51	0.148882
1645.69	0.153638
1646.88	0.157753
1648.06	0.166705
1649.25	0.175228
1650.43	0.168655
1651.62	0.172435
1652.8	0.174647
1653.99	0.171835
1655.17	0.175008
1656.36	0.173942
1657.54	0.175869
1658.73	0.182123
1659.91	0.183326
1661.1	0.192458
1662.28	0.189642
1663.47	0.196335
1664.65	0.191597
1665.84	0.190613
1667.02	0.202609
1668.21	0.20347
1669.39	0.203465
1670.58	0.196458
1671.76	0.202125
1672.95	0.190449
1674.13	0.195365
1675.32	0.189412
1676.5	0.182912
1677.69	0.183276
1678.87	0.182453
1680.06	0.177609
1681.24	0.175013
1682.43	0.172595
1683.61	0.174904
1684.8	0.17507
1685.98	0.17909
1687.17	0.188858
1688.35	0.191424
1689.54	0.203302
1690.72	0.20312
1691.91	0.212954
1693.09	0.217922
1694.28	0.228763
1695.46	0.230219
1696.65	0.232084
1697.83	0.235412
1699.02	0.231273
1700.2	0.228283
1701.39	0.232299
1702.57	0.231105
1703.76	0.225385
1704.94	0.213556
1706.13	0.217459
1707.31	0.213013
1708.5	0.203063
1709.68	0.188359
1710.87	0.174266
1712.05	0.17199
1713.24	0.169488
1714.42	0.171575
1715.61	0.170345
1716.79	0.158234
1717.98	0.145386
1719.16	0.140135
1720.35	0.134716
1721.53	0.126518
1722.72	0.118955
1723.9	0.11601
1725.09	0.120179
1726.27	0.11715
1727.46	0.117534
1728.64	0.111322
1729.83	0.105194
1731.01	0.105073
1732.2	0.110504
1733.38	0.119525
1734.57	0.127369
1735.75	0.13443
1736.94	0.137495
1738.12	0.147098
1739.31	0.152668
1740.49	0.149966
1741.68	0.146202
1742.86	0.149724
1744.05	0.148222
1745.23	0.153593
1746.42	0.151135
1747.6	0.134497
1748.79	0.132336
1749.97	0.123014
1751.16	0.119831
1752.34	0.115504
1753.53	0.107829
1754.71	0.0942146
1755.9	0.0894758
1757.08	0.0895111
1758.27	0.085988
1759.45	0.0822775
1760.64	0.0808573
1761.82	0.0785301
1763.01	0.0819388
1764.19	0.0791237
1765.38	0.0810222
1766.56	0.0843173
1767.74	0.0778256
1768.93	0.0753088
1770.12	0.0801578
1771.3	0.0815281
1772.49	0.0769998
1773.67	0.0775933
1774.85	0.0781618
1776.04	0.0732562
1777.23	0.0745154
1778.41	0.0681867
1779.6	0.070879
1780.78	0.0642098
1781.97	0.0554411
1783.15	0.0527813
1784.34	0.0553913
1785.52	0.0507082
1786.7	0.0521801
1787.89	0.0470029
1789.08	0.0459346
1790.26	0.0381629
1791.45	0.0348994
1792.63	0.0242949
1793.81	0.0157661
1795	0.0085162
