405	0.318321
406.185	0.329891
407.37	0.340266
408.555	0.351857
409.74	0.360386
410.925	0.366225
412.11	0.371218
413.295	0.37269
414.48	0.365095
415.665	0.352196
416.85	0.354152
418.035	0.355338
419.22	0.348269
420.405	0.334296
421.59	0.320067
422.775	0.30758
423.96	0.283442
425.145	0.265515
426.33	0.24507
427.515	0.219642
428.7	0.198833
429.885	0.17853
431.07	0.159001
432.255	0.143546
433.44	0.121662
434.625	0.107686
435.81	0.103391
436.995	0.079416
438.18	0.0565676
439.365	0.0401722
440.55	0.0329252
441.735	0.0307084
442.92	0.0218245
444.105	0.0187639
445.29	0.00504412
446.475	-0.0023967
447.66	-0.00651194
448.845	-0.0105657
450.03	-0.00795493
451.215	-0.00219583
452.4	-0.00209019
453.585	0.00569058
454.77	0.0158722
455.955	0.0230032
457.14	0.0460326
458.325	0.0698205
459.51	0.0943426
460.695	0.113439
461.88	0.127208
463.065	0.150991
464.25	0.186645
465.435	0.231288
466.62	0.272548
467.805	0.311445
468.99	0.35317
470.175	0.391796
471.36	0.429659
472.545	0.474571
473.73	0.524149
474.915	0.570344
476.1	0.61763
477.285	0.656707
478.47	0.693529
479.655	0.733388
480.84	0.771065
482.025	0.800268
483.21	0.820201
484.395	0.833789
485.58	0.842828
486.765	0.852103
487.95	0.850856
489.135	0.852713
490.32	0.851358
491.505	0.841854
492.69	0.822273
493.875	0.793662
495.06	0.760561
496.245	0.725508
497.43	0.690526
498.615	0.651447
499.8	0.607472
500.985	0.571207
502.17	0.537798
503.355	0.503317
504.54	0.468786
505.725	0.433165
506.91	0.402868
508.095	0.383465
509.28	0.345885
510.465	0.3152
511.65	0.286235
512.835	0.260715
514.02	0.241023
515.205	0.224993
516.39	0.209194
517.575	0.196371
518.76	0.191085
519.945	0.178386
521.13	0.169315
522.315	0.165605
523.5	0.157409
524.685	0.147794
525.87	0.14233
527.055	0.137918
528.24	0.130808
529.425	0.136286
530.61	0.140445
531.794	0.135084
532.98	0.142415
534.165	0.148957
535.35	0.150086
536.535	0.15212
537.719	0.155812
538.905	0.156939
540.09	0.165597
541.274	0.168035
542.46	0.170263
543.644	0.180343
544.829	0.189294
546.015	0.189176
547.199	0.187778
548.384	0.189737
549.57	0.193016
550.754	0.198068
551.94	0.205143
553.124	0.191925
554.309	0.191869
555.495	0.191523
556.679	0.191931
557.864	0.190089
559.049	0.187812
560.234	0.182966
561.419	0.17504
562.604	0.17151
563.789	0.173092
564.974	0.170673
566.159	0.169798
567.344	0.162475
568.529	0.159098
569.714	0.153058
570.899	0.144629
572.084	0.143643
573.269	0.147045
574.454	0.143907
575.639	0.149737
576.824	0.140674
578.009	0.134389
579.194	0.127081
580.379	0.127763
581.564	0.13027
582.749	0.125192
583.934	0.117595
585.119	0.115695
586.304	0.118564
587.489	0.118583
588.674	0.105161
589.859	0.101515
591.044	0.101771
592.229	0.0983945
593.414	0.0988773
594.599	0.089334
595.784	0.0825107
596.969	0.0843546
598.154	0.0870276
599.339	0.0844846
600.524	0.0719825
601.709	0.0652084
602.894	0.0645474
604.079	0.060288
605.264	0.0565159
606.449	0.0532315
607.634	0.054214
608.819	0.0523272
610.004	0.0454052
611.189	0.0390233
612.374	0.0338488
613.559	0.0272156
614.744	0.0293191
615.929	0.0255514
617.114	0.0296151
618.299	0.0240445
619.484	0.0243836
620.669	0.023322
621.854	0.0198599
623.039	0.01675
624.224	0.0123961
625.409	0.00611911
626.594	0.00312869
627.779	-0.00226889
628.964	-0.000166566
630.149	0.00564508
631.334	0.00373019
632.519	0.00634089
633.704	0.0116211
634.889	0.0167781
636.074	0.0129998
637.259	0.005647
638.444	0.0102804
639.629	0.0204825
640.814	0.0268241
641.999	0.0263269
643.184	0.0334406
644.369	0.031504
645.554	0.0317899
646.739	0.0349609
647.924	0.0369951
649.109	0.0397196
650.294	0.0429827
651.479	0.0431856
652.664	0.0395767
653.849	0.0353927
655.034	0.0380078
656.219	0.0544305
657.404	0.0551556
658.589	0.056776
659.774	0.0631008
660.959	0.0730103
662.144	0.0805305
663.329	0.0901323
664.514	0.101555
665.699	0.114691
666.884	0.133617
668.069	0.146898
669.254	0.151278
670.439	0.165686
671.624	0.171832
672.809	0.186039
673.994	0.1902
675.179	0.188488
676.364	0.185594
677.549	0.185147
678.734	0.185714
679.919	0.184972
681.104	0.181058
682.289	0.172354
683.474	0.168077
684.659	0.165249
685.844	0.144311
687.029	0.126636
688.214	0.121771
689.399	0.106107
690.584	0.0961734
691.769	0.0864289
692.954	0.0772698
694.139	0.0715585
695.324	0.0714982
696.509	0.0732522
697.694	0.0622319
698.879	0.0550457
700.064	0.0494423
701.249	0.0548124
702.434	0.0489753
703.619	0.046219
704.804	0.0449746
705.989	0.0403311
707.174	0.0343094
708.359	0.034038
709.544	0.0368319
710.729	0.0376827
711.914	0.0369219
713.099	0.0331371
714.284	0.0288982
715.469	0.0210772
716.654	0.020128
717.839	0.0197024
719.024	0.0159158
720.209	0.012305
721.394	0.0142353
722.579	0.015393
723.764	0.0198219
724.949	0.0291865
726.134	0.0349046
727.319	0.0326962
728.504	0.0312904
729.689	0.0357418
730.874	0.0370965
732.059	0.0405773
733.244	0.0418047
734.429	0.0442943
735.614	0.0474682
736.799	0.0513665
737.984	0.0604608
739.169	0.060077
740.354	0.0556735
741.539	0.0526478
742.724	0.0485449
743.909	0.0428808
745.094	0.0400657
746.279	0.0428927
747.464	0.0469023
748.649	0.0464166
749.834	0.0486475
751.019	0.045615
752.204	0.045783
753.389	0.0449942
754.574	0.0444165
755.759	0.0416032
756.944	0.0371945
758.129	0.036998
759.314	0.0388581
760.499	0.0403429
761.684	0.0427473
762.869	0.0453942
764.054	0.0492836
765.239	0.0546671
766.424	0.0514494
767.609	0.051376
768.794	0.049951
769.979	0.0498631
771.164	0.0472759
772.349	0.0457166
773.534	0.049482
774.719	0.0489482
775.904	0.0440421
777.089	0.0396703
778.274	0.0400659
779.459	0.0427438
780.644	0.0428974
781.829	0.0411718
783.014	0.0352583
784.199	0.0252378
785.384	0.0311797
786.569	0.0284381
787.754	0.0180468
788.939	0.014324
790.124	0.0150891
791.309	0.0151364
792.494	0.00818961
793.679	0.00380808
794.864	0.00526954
796.049	0.00859909
797.234	0.00635644
798.419	0.00218263
799.604	0.00853204
800.789	0.0232994
801.974	0.0349352
803.159	0.0495234
804.344	0.0608005
805.529	0.0805045
806.714	0.10593
807.899	0.132176
809.084	0.161191
810.269	0.191991
811.453	0.219674
812.639	0.252835
813.824	0.280889
815.008	0.309737
816.194	0.341724
817.379	0.367193
818.563	0.380257
819.749	0.389947
820.933	0.401585
822.118	0.408017
823.304	0.411602
824.488	0.40836
825.674	0.413624
826.858	0.419094
828.043	0.416256
829.229	0.411825
830.413	0.42547
831.598	0.43227
832.784	0.445744
833.968	0.457545
835.153	0.479456
836.338	0.502653
837.523	0.531682
838.708	0.566746
839.893	0.609891
841.078	0.656817
842.263	0.702529
843.448	0.750051
844.633	0.790564
845.818	0.825271
847.003	0.858883
848.188	0.892525
849.373	0.90735
850.558	0.925437
851.743	0.94218
852.928	0.948225
854.113	0.941872
855.298	0.946984
856.483	0.936845
857.668	0.926058
858.853	0.90943
860.038	0.88548
861.223	0.861574
862.408	0.835543
863.593	0.804648
864.778	0.779398
865.963	0.75712
867.148	0.728132
868.333	0.701946
869.518	0.669294
870.703	0.632025
871.888	0.605465
873.073	0.576162
874.258	0.541448
875.443	0.512891
876.628	0.481625
877.813	0.449247
878.998	0.424499
880.183	0.395674
881.368	0.369537
882.553	0.352433
883.738	0.325173
884.923	0.307656
886.108	0.293853
887.293	0.280856
888.478	0.278666
889.663	0.278279
890.848	0.273903
892.033	0.271826
893.218	0.274913
894.403	0.282818
895.588	0.286089
896.773	0.296489
897.958	0.303669
899.143	0.307503
900.328	0.31691
901.513	0.319931
902.698	0.335717
903.883	0.34382
905.068	0.363317
906.253	0.382997
907.438	0.390086
908.623	0.402788
909.808	0.412825
910.993	0.425174
912.178	0.436638
913.363	0.449502
914.548	0.458478
915.733	0.462439
916.918	0.474825
918.103	0.486851
919.288	0.49316
920.473	0.497339
921.658	0.499702
922.843	0.50044
924.028	0.490493
925.213	0.481092
926.398	0.479135
927.583	0.47714
928.768	0.469822
929.953	0.456927
931.138	0.436898
932.323	0.415674
933.508	0.400263
934.693	0.390085
935.878	0.365174
937.063	0.342087
938.248	0.32302
939.433	0.302865
940.618	0.284375
941.803	0.262191
942.988	0.240363
944.173	0.220796
945.358	0.202159
946.543	0.186001
947.728	0.171681
948.913	0.156047
950.098	0.149992
951.283	0.149339
952.468	0.14373
953.653	0.13862
954.838	0.139157
956.023	0.139761
957.208	0.138013
958.393	0.134969
959.578	0.129956
960.763	0.136214
961.948	0.148197
963.133	0.152368
964.318	0.157399
965.503	0.167491
966.688	0.17493
967.873	0.185595
969.058	0.184162
970.243	0.18189
971.428	0.192068
972.613	0.20015
973.798	0.210602
974.983	0.215705
976.168	0.225327
977.353	0.229707
978.538	0.232764
979.723	0.225749
980.908	0.223938
982.093	0.221836
983.278	0.215346
984.463	0.214398
985.648	0.214892
986.833	0.216006
988.018	0.218617
989.203	0.218735
990.388	0.214698
991.573	0.210873
992.758	0.215522
993.943	0.217703
995.128	0.220819
996.313	0.232748
997.498	0.243385
998.683	0.249813
999.868	0.254252
1001.05	0.26051
1002.24	0.26937
1003.42	0.276906
1004.61	0.28277
1005.79	0.286544
1006.98	0.285156
1008.16	0.283089
1009.35	0.285136
1010.53	0.286947
1011.72	0.281706
1012.9	0.283871
1014.09	0.28241
1015.27	0.281379
1016.46	0.285014
1017.64	0.296887
1018.83	0.312646
1020.01	0.319958
1021.2	0.329269
1022.38	0.341406
1023.57	0.357484
1024.75	0.374565
1025.94	0.394188
1027.12	0.414612
1028.31	0.43143
1029.49	0.455074
1030.68	0.486985
1031.86	0.512874
1033.05	0.542145
1034.23	0.572085
1035.42	0.598982
1036.6	0.62258
1037.79	0.65322
1038.97	0.677181
1040.16	0.699411
1041.34	0.723877
1042.53	0.750701
1043.71	0.773922
1044.9	0.794061
1046.08	0.809781
1047.27	0.822979
1048.45	0.829943
1049.64	0.834386
1050.82	0.834844
1052.01	0.840945
1053.19	0.84393
1054.38	0.839082
1055.56	0.8321
1056.75	0.827099
1057.93	0.81945
1059.12	0.810028
1060.3	0.799138
1061.49	0.7856
1062.67	0.77079
1063.86	0.754926
1065.04	0.738743
1066.23	0.725528
1067.41	0.715039
1068.6	0.702566
1069.78	0.687122
1070.97	0.665896
1072.15	0.647943
1073.34	0.63584
1074.52	0.61847
1075.71	0.600177
1076.89	0.579078
1078.08	0.556878
1079.26	0.544374
1080.45	0.538026
1081.63	0.532999
1082.82	0.526233
1084	0.518838
1085.19	0.504547
1086.37	0.495795
1087.56	0.486284
1088.74	0.476395
1089.93	0.468256
1091.11	0.454704
1092.3	0.442304
1093.48	0.436614
1094.67	0.43822
1095.85	0.439355
1097.04	0.435251
1098.22	0.425311
1099.41	0.41285
1100.59	0.409378
1101.78	0.408083
1102.96	0.411562
1104.15	0.412513
1105.33	0.414103
1106.52	0.415082
1107.7	0.423249
1108.89	0.427191
1110.07	0.433306
1111.26	0.431377
1112.44	0.42936
1113.63	0.424189
1114.81	0.413644
1116	0.408804
1117.18	0.408511
1118.37	0.396928
1119.55	0.375457
1120.74	0.350411
1121.92	0.332639
1123.11	0.312089
1124.29	0.290391
1125.48	0.261183
1126.66	0.23194
1127.85	0.205525
1129.03	0.184732
1130.22	0.155762
1131.4	0.131146
1132.59	0.111992
1133.77	0.0859087
1134.96	0.0615525
1136.14	0.0468409
1137.33	0.0386823
1138.51	0.0335988
1139.7	0.0193962
1140.88	0.0140158
1142.07	0.00862022
1143.25	0.00963929
1144.44	0.009597
1145.62	0.0115302
1146.81	0.0124651
1147.99	0.0119099
1149.18	0.0134382
1150.36	0.0175191
1151.55	0.0219674
1152.73	0.0229042
1153.92	0.0224587
1155.1	0.0205145
1156.29	0.0209981
1157.47	0.0242543
1158.66	0.020634
1159.84	0.014989
1161.03	0.0107705
1162.21	0.0143343
1163.4	0.0118147
1164.58	0.00988588
1165.77	0.0143795
1166.95	0.016587
1168.14	0.0137686
1169.32	0.00797209
1170.51	0.00767958
1171.69	0.00829899
1172.88	0.00603071
1174.06	0.00324608
1175.25	-0.00165032
1176.43	-2.96257e-005
1177.62	0.00786969
1178.8	0.0111045
1179.99	0.00902174
1181.17	0.01085
1182.36	0.0145464
1183.54	0.0157142
1184.73	0.0199779
1185.91	0.029243
1187.1	0.0336992
1188.28	0.0337162
1189.47	0.0406216
1190.65	0.0433621
1191.84	0.0436501
1193.02	0.0494885
1194.21	0.0557472
1195.39	0.0612665
1196.58	0.066038
1197.76	0.071552
1198.95	0.0673901
1200.13	0.0659491
1201.32	0.0633236
1202.5	0.0596615
1203.69	0.0624145
1204.87	0.0714879
1206.06	0.0772234
1207.24	0.0719934
1208.43	0.0774586
1209.61	0.0799173
1210.8	0.0818093
1211.98	0.0779236
1213.17	0.0794613
1214.35	0.0760717
1215.54	0.0750174
1216.72	0.0861353
1217.91	0.0889237
1219.09	0.0988992
1220.28	0.098809
1221.46	0.0951496
1222.65	0.102367
1223.83	0.103132
1225.02	0.115461
1226.2	0.125748
1227.39	0.140856
1228.57	0.147356
1229.76	0.155755
1230.94	0.161017
1232.13	0.1721
1233.31	0.18127
1234.5	0.187678
1235.68	0.19484
1236.87	0.200568
1238.05	0.209388
1239.24	0.217463
1240.42	0.223462
1241.61	0.228642
1242.79	0.231078
1243.98	0.233157
1245.16	0.233567
1246.35	0.236342
1247.53	0.238837
1248.72	0.242628
1249.9	0.24672
1251.09	0.252198
1252.27	0.254125
1253.46	0.258016
1254.64	0.265967
1255.83	0.270265
1257.01	0.270514
1258.2	0.271702
1259.38	0.279206
1260.57	0.279678
1261.75	0.282518
1262.94	0.283985
1264.12	0.282802
1265.31	0.273991
1266.49	0.275814
1267.68	0.275831
1268.86	0.27404
1270.05	0.274536
1271.23	0.269957
1272.42	0.26531
1273.6	0.26252
1274.79	0.256688
1275.97	0.25312
1277.16	0.24106
1278.34	0.231111
1279.53	0.226575
1280.71	0.223382
1281.9	0.227142
1283.08	0.224159
1284.27	0.213237
1285.45	0.202285
1286.64	0.194357
1287.82	0.186266
1289.01	0.178386
1290.19	0.172521
1291.38	0.170874
1292.56	0.17186
1293.75	0.170549
1294.93	0.171838
1296.12	0.169203
1297.3	0.168527
1298.49	0.164893
1299.67	0.165849
1300.86	0.162302
1302.04	0.160925
1303.23	0.168001
1304.41	0.170451
1305.6	0.176648
1306.78	0.179726
1307.97	0.187049
1309.15	0.188175
1310.34	0.183975
1311.52	0.189311
1312.71	0.192406
1313.89	0.198567
1315.08	0.197638
1316.26	0.196231
1317.45	0.196441
1318.63	0.199746
1319.82	0.201677
1321	0.202523
1322.19	0.198972
1323.37	0.194139
1324.56	0.187441
1325.74	0.185561
1326.93	0.186156
1328.11	0.184632
1329.3	0.180713
1330.48	0.167921
1331.67	0.163557
1332.85	0.164162
1334.04	0.16268
1335.22	0.164554
1336.41	0.159851
1337.59	0.156498
1338.78	0.152072
1339.96	0.154257
1341.15	0.152324
1342.33	0.15034
1343.52	0.144659
1344.7	0.141198
1345.89	0.14101
1347.07	0.142158
1348.26	0.146026
1349.44	0.14641
1350.63	0.140087
1351.81	0.134194
1353	0.137047
1354.18	0.139469
1355.37	0.139685
1356.55	0.142752
1357.74	0.143132
1358.92	0.142508
1360.11	0.141803
1361.29	0.138059
1362.48	0.13784
1363.66	0.139426
1364.85	0.138974
1366.03	0.134222
1367.22	0.132297
1368.4	0.131017
1369.59	0.129379
1370.77	0.123196
1371.96	0.121388
1373.14	0.118257
1374.33	0.111095
1375.51	0.103769
1376.7	0.099868
1377.88	0.102026
1379.07	0.102429
1380.25	0.100176
1381.44	0.0914677
1382.62	0.0857111
1383.81	0.0809868
1384.99	0.0872145
1386.18	0.0781313
1387.36	0.0790562
1388.55	0.0770276
1389.73	0.0740843
1390.92	0.0736028
1392.1	0.0801141
1393.29	0.0852677
1394.47	0.0823725
1395.66	0.0785824
1396.84	0.0799714
1398.03	0.0882101
1399.21	0.0912382
1400.4	0.0935987
1401.58	0.0927326
1402.77	0.0982886
1403.95	0.100719
1405.14	0.1014
1406.32	0.107202
1407.51	0.109911
1408.69	0.106234
1409.88	0.100719
1411.06	0.103365
1412.25	0.111033
1413.43	0.109777
1414.62	0.105513
1415.8	0.110339
1416.99	0.113803
1418.17	0.115266
1419.36	0.118931
1420.54	0.118053
1421.73	0.117111
1422.91	0.115254
1424.1	0.111311
1425.28	0.113208
1426.47	0.116934
1427.65	0.116043
1428.84	0.108928
1430.02	0.10919
1431.21	0.117897
1432.39	0.118122
1433.58	0.118127
1434.76	0.121928
1435.95	0.124413
1437.13	0.130816
1438.32	0.14017
1439.5	0.150988
1440.69	0.164961
1441.87	0.175169
1443.06	0.18519
1444.24	0.204742
1445.43	0.225508
1446.61	0.242899
1447.8	0.2558
1448.98	0.272565
1450.17	0.292133
1451.35	0.315969
1452.54	0.339977
1453.72	0.359049
1454.91	0.373318
1456.09	0.384747
1457.28	0.400588
1458.46	0.42617
1459.65	0.446425
1460.83	0.448852
1462.02	0.45431
1463.2	0.462038
1464.39	0.462568
1465.57	0.459658
1466.76	0.459153
1467.94	0.447975
1469.13	0.434164
1470.31	0.423302
1471.5	0.412629
1472.68	0.397766
1473.87	0.376282
1475.05	0.346159
1476.24	0.318616
1477.42	0.300935
1478.61	0.276906
1479.79	0.247877
1480.98	0.227976
1482.16	0.206627
1483.35	0.182551
1484.53	0.163203
1485.72	0.141137
1486.9	0.119226
1488.09	0.0998263
1489.27	0.0820263
1490.46	0.0693649
1491.64	0.0560002
1492.83	0.0473775
1494.01	0.0431188
1495.2	0.0362627
1496.38	0.0307916
1497.57	0.0235255
1498.75	0.0171032
1499.94	0.00852559
1501.12	0.00325003
1502.31	0.00476175
1503.49	0.00635235
1504.68	0.00953643
1505.86	0.0134389
1507.05	0.0132457
1508.23	0.0116651
1509.42	0.00986991
1510.6	0.00302271
1511.79	0.00305838
1512.97	0.00553174
1514.16	0.00613061
1515.34	0.00812183
1516.53	0.00730766
1517.71	0.00918792
1518.9	0.00879035
1520.08	0.00763908
1521.27	0.00226194
1522.45	0.000213363
1523.64	0.00289121
1524.82	0.00533878
1526.01	0.00545521
1527.19	0.00514799
1528.38	0.00853975
1529.56	0.0106289
1530.75	0.0123186
1531.93	0.0173948
1533.12	0.0218803
1534.3	0.0217534
1535.49	0.0162723
1536.67	0.0183923
1537.86	0.0186199
1539.04	0.0179971
1540.23	0.0148336
1541.41	0.0155322
1542.6	0.01542
1543.78	0.0155986
1544.97	0.0128614
1546.15	0.0103276
1547.34	0.00834381
1548.52	0.00644881
1549.71	0.00583479
1550.89	0.00443512
1552.08	0.00784713
1553.26	0.00587351
1554.45	0.00741384
1555.63	0.0113455
1556.82	0.0151418
1558	0.0176196
1559.19	0.020862
1560.37	0.0209022
1561.56	0.0197614
1562.74	0.0231902
1563.93	0.022313
1565.11	0.0243127
1566.3	0.0252395
1567.48	0.0276056
1568.67	0.0294007
1569.85	0.0298082
1571.04	0.0307315
1572.22	0.0309717
1573.41	0.0319318
1574.59	0.0331507
1575.78	0.0368611
1576.96	0.0385993
1578.15	0.0403467
1579.33	0.0386561
1580.52	0.0419617
1581.7	0.043322
1582.89	0.046184
1584.07	0.0489099
1585.26	0.0548142
1586.44	0.0601965
1587.63	0.0606916
1588.81	0.0598883
1590	0.0594611
1591.18	0.0602677
1592.37	0.0625554
1593.55	0.0660975
1594.74	0.0705441
1595.92	0.075825
1597.11	0.0795145
1598.29	0.0812167
1599.48	0.0806081
1600.66	0.0830193
1601.85	0.0843437
1603.03	0.0866857
1604.22	0.089188
1605.4	0.0934081
1606.59	0.0967548
1607.77	0.0976468
1608.96	0.0976293
1610.14	0.103723
1611.33	0.109346
1612.51	0.107786
1613.7	0.109558
1614.88	0.115384
1616.07	0.12316
1617.25	0.123551
1618.44	0.125791
1619.62	0.1298
1620.81	0.13442
1621.99	0.136574
1623.18	0.141046
1624.36	0.146925
1625.55	0.154562
1626.73	0.1501
1627.92	0.148012
1629.1	0.153555
1630.29	0.157467
1631.47	0.15803
1632.66	0.158774
1633.84	0.159792
1635.03	0.161656
1636.21	0.162472
1637.4	0.161774
1638.58	0.160769
1639.77	0.161617
1640.95	0.158474
1642.14	0.160253
1643.32	0.163292
1644.51	0.163881
1645.69	0.165004
1646.88	0.163314
1648.06	0.16474
1649.25	0.168156
1650.43	0.164755
1651.62	0.173217
1652.8	0.178594
1653.99	0.182516
1655.17	0.181113
1656.36	0.182422
1657.54	0.186387
1658.73	0.191047
1659.91	0.195319
1661.1	0.19687
1662.28	0.197543
1663.47	0.203964
1664.65	0.204138
1665.84	0.209856
1667.02	0.212051
1668.21	0.210716
1669.39	0.209884
1670.58	0.214791
1671.76	0.219948
1672.95	0.220989
1674.13	0.222789
1675.32	0.224465
1676.5	0.223621
1677.69	0.224927
1678.87	0.224769
1680.06	0.225806
1681.24	0.224444
1682.43	0.224233
1683.61	0.221419
1684.8	0.220577
1685.98	0.219737
1687.17	0.216222
1688.35	0.212002
1689.54	0.207224
1690.72	0.203224
1691.91	0.203497
1693.09	0.204042
1694.28	0.202299
1695.46	0.197324
1696.65	0.197553
1697.83	0.197712
1699.02	0.201339
1700.2	0.20192
1701.39	0.202913
1702.57	0.205071
1703.76	0.204282
1704.94	0.206383
1706.13	0.210599
1707.31	0.210628
1708.5	0.204771
1709.68	0.208744
1710.87	0.210188
1712.05	0.211198
1713.24	0.208117
1714.42	0.201514
1715.61	0.199128
1716.79	0.196308
1717.98	0.192133
1719.16	0.189783
1720.35	0.1917
1721.53	0.188015
1722.72	0.186732
1723.9	0.183887
1725.09	0.177708
1726.27	0.174537
1727.46	0.172072
1728.64	0.171602
1729.83	0.170882
1731.01	0.171544
1732.2	0.169322
1733.38	0.16609
1734.57	0.164861
1735.75	0.159341
1736.94	0.159707
1738.12	0.16168
1739.31	0.159212
1740.49	0.158578
1741.68	0.155724
1742.86	0.153381
1744.05	0.153067
1745.23	0.15093
1746.42	0.146654
1747.6	0.143286
1748.79	0.144701
1749.97	0.144365
1751.16	0.142837
1752.34	0.141974
1753.53	0.136262
1754.71	0.133035
1755.9	0.131564
1757.08	0.130012
1758.27	0.129046
1759.45	0.122145
1760.64	0.116752
1761.82	0.11409
1763.01	0.111899
1764.19	0.108732
1765.38	0.106758
1766.56	0.105251
1767.74	0.10299
1768.93	0.1017
1770.12	0.0974129
1771.3	0.0941446
1772.49	0.088382
1773.67	0.0841723
1774.85	0.080927
1776.04	0.0807995
1777.23	0.0730089
1778.41	0.0670562
1779.6	0.0601327
1780.78	0.0543945
1781.97	0.0488564
1783.15	0.0439185
1784.34	0.0334979
1785.52	0.0288673
1786.7	0.0230264
1787.89	0.0198478
1789.08	0.0166216
1790.26	0.0143066
1791.45	0.0100976
1792.63	0.00962536
1793.81	0.00830992
1795	0.00685758
