405	0.258743
406.185	0.260043
407.37	0.26785
408.555	0.276772
409.74	0.287337
410.925	0.297017
412.11	0.302982
413.295	0.305841
414.48	0.305278
415.665	0.299096
416.85	0.290579
418.035	0.274944
419.22	0.266405
420.405	0.25879
421.59	0.246029
422.775	0.232191
423.96	0.20501
425.145	0.188088
426.33	0.162323
427.515	0.138681
428.7	0.119719
429.885	0.0995226
431.07	0.0762166
432.255	0.053269
433.44	0.0315822
434.625	0.0239869
435.81	0.0112976
436.995	0.00127914
438.18	-0.00141631
439.365	-0.00092523
440.55	-0.00159209
441.735	-0.00405312
442.92	-0.00437208
444.105	0.00724312
445.29	0.0134308
446.475	0.0186106
447.66	0.021241
448.845	0.0217403
450.03	0.0240851
451.215	0.0315337
452.4	0.0429826
453.585	0.0528898
454.77	0.0537909
455.955	0.0509746
457.14	0.0631678
458.325	0.0831379
459.51	0.0975748
460.695	0.11654
461.88	0.145013
463.065	0.165517
464.25	0.186464
465.435	0.212542
466.62	0.24908
467.805	0.292251
468.99	0.33098
470.175	0.369619
471.36	0.408199
472.545	0.449598
473.73	0.506947
474.915	0.557374
476.1	0.614508
477.285	0.658435
478.47	0.698559
479.655	0.741866
480.84	0.781786
482.025	0.814486
483.21	0.843191
484.395	0.871194
485.58	0.908231
486.765	0.924599
487.95	0.937645
489.135	0.945208
490.32	0.942149
491.505	0.937791
492.69	0.927976
493.875	0.90738
495.06	0.892851
496.245	0.864055
497.43	0.836904
498.615	0.797426
499.8	0.767222
500.985	0.732154
502.17	0.692903
503.355	0.656286
504.54	0.619315
505.725	0.574574
506.91	0.54106
508.095	0.497044
509.28	0.469853
510.465	0.443467
511.65	0.418921
512.835	0.389864
514.02	0.358736
515.205	0.335097
516.39	0.320966
517.575	0.305547
518.76	0.301728
519.945	0.280922
521.13	0.27123
522.315	0.272453
523.5	0.265583
524.685	0.254426
525.87	0.245329
527.055	0.238196
528.24	0.237485
529.425	0.227546
530.61	0.23147
531.795	0.237772
532.98	0.246792
534.164	0.255726
535.35	0.257866
536.535	0.258746
537.719	0.25994
538.905	0.257535
540.09	0.266782
541.274	0.256319
542.46	0.254765
543.644	0.252984
544.829	0.25317
546.015	0.257144
547.199	0.263147
548.385	0.269222
549.569	0.274973
550.754	0.275654
551.94	0.257973
553.124	0.249459
554.309	0.240424
555.495	0.244782
556.679	0.246202
557.864	0.251876
559.049	0.251158
560.234	0.250225
561.419	0.254476
562.604	0.249552
563.789	0.253
564.974	0.259271
566.159	0.2449
567.344	0.229532
568.529	0.220374
569.714	0.214252
570.899	0.21216
572.084	0.217551
573.269	0.226211
574.454	0.229758
575.639	0.232026
576.824	0.22803
578.009	0.220573
579.194	0.216222
580.379	0.211769
581.564	0.210052
582.749	0.212319
583.934	0.208163
585.119	0.202348
586.304	0.208175
587.489	0.215178
588.674	0.223617
589.859	0.213838
591.044	0.215567
592.229	0.201607
593.414	0.195881
594.599	0.186213
595.784	0.175937
596.969	0.172662
598.154	0.172937
599.339	0.171122
600.524	0.172139
601.709	0.167405
602.894	0.164499
604.079	0.168094
605.264	0.164041
606.449	0.160903
607.634	0.152003
608.819	0.14752
610.004	0.149313
611.189	0.14942
612.374	0.145721
613.559	0.133026
614.744	0.134886
615.929	0.133221
617.114	0.122078
618.299	0.121851
619.484	0.115452
620.669	0.109078
621.854	0.0990384
623.039	0.0867791
624.224	0.0824149
625.409	0.0842065
626.594	0.0770457
627.779	0.0717906
628.964	0.0673325
630.149	0.0533318
631.334	0.0514571
632.519	0.0469687
633.704	0.0380509
634.889	0.0287834
636.074	0.0226316
637.259	0.0132962
638.444	0.000395853
639.629	0.000847686
640.814	-0.00167565
641.999	-0.000258904
643.184	-0.00218313
644.369	-0.00166831
645.554	-0.0031037
646.739	-0.00513479
647.924	-0.0105657
649.109	-0.00970974
650.294	-0.00124972
651.479	0.00704855
652.664	0.013923
653.849	0.021287
655.034	0.0311558
656.219	0.0409452
657.404	0.0606875
658.589	0.0625739
659.774	0.0703404
660.959	0.0861309
662.144	0.10019
663.329	0.106845
664.514	0.116365
665.699	0.133843
666.884	0.150261
668.069	0.167829
669.254	0.181498
670.439	0.181424
671.624	0.203036
672.809	0.213561
673.994	0.220509
675.179	0.219716
676.364	0.222003
677.549	0.229097
678.734	0.234393
679.919	0.231312
681.104	0.225293
682.289	0.228242
683.474	0.222886
684.659	0.207997
685.844	0.199367
687.029	0.185291
688.214	0.170889
689.399	0.167239
690.584	0.153243
691.769	0.140739
692.954	0.131549
694.139	0.125366
695.324	0.118667
696.509	0.10455
697.694	0.0930348
698.879	0.0823114
700.064	0.0834308
701.249	0.0699727
702.434	0.0659107
703.619	0.0683256
704.804	0.0656528
705.989	0.0672148
707.174	0.0656832
708.359	0.0588569
709.544	0.0536981
710.729	0.0499774
711.914	0.0456957
713.099	0.0475086
714.284	0.0460409
715.469	0.0473051
716.654	0.0517111
717.839	0.0571585
719.024	0.0509761
720.209	0.0511645
721.394	0.0485989
722.579	0.0475032
723.764	0.0487443
724.949	0.0501397
726.134	0.0543823
727.319	0.0600453
728.504	0.0612014
729.689	0.0641778
730.874	0.07179
732.059	0.0779301
733.244	0.0833548
734.429	0.0872241
735.614	0.095494
736.799	0.102945
737.984	0.105158
739.169	0.104898
740.354	0.105938
741.539	0.102699
742.724	0.0988517
743.909	0.0983792
745.094	0.0941195
746.279	0.0891782
747.464	0.0917675
748.649	0.0891689
749.834	0.0868903
751.019	0.0736547
752.204	0.0687732
753.389	0.0683749
754.574	0.0648919
755.759	0.0572926
756.944	0.057248
758.129	0.0634829
759.314	0.070368
760.499	0.0743639
761.684	0.0774827
762.869	0.0805972
764.054	0.0791024
765.239	0.0829438
766.424	0.0711002
767.609	0.070878
768.794	0.0693823
769.979	0.0652293
771.164	0.0656146
772.349	0.0562149
773.534	0.0452261
774.719	0.0410938
775.904	0.0374336
777.089	0.024559
778.274	0.0145953
779.459	0.0159929
780.644	0.0174769
781.829	0.0168143
783.014	0.0187671
784.199	0.0140022
785.384	0.0223889
786.569	0.0230785
787.754	0.0195485
788.939	0.0197496
790.124	0.00917336
791.309	0.0106574
792.494	0.0121402
793.679	0.0129554
794.864	0.010022
796.049	0.0155889
797.234	0.0142619
798.419	0.00635465
799.604	0.00926482
800.789	0.0115545
801.974	0.00987701
803.159	0.0127824
804.344	0.0208659
805.529	0.0396587
806.714	0.0586473
807.899	0.0876329
809.084	0.115938
810.269	0.142672
811.454	0.166807
812.639	0.198048
813.823	0.225842
815.009	0.245934
816.194	0.276024
817.378	0.30262
818.564	0.319547
819.748	0.342307
820.933	0.365793
822.119	0.378943
823.303	0.387151
824.488	0.385648
825.674	0.386319
826.858	0.380236
828.044	0.387252
829.228	0.38869
830.413	0.395203
831.599	0.397063
832.783	0.41223
833.968	0.432462
835.153	0.448848
836.338	0.475922
837.523	0.504579
838.708	0.527425
839.893	0.557777
841.078	0.600637
842.263	0.645133
843.448	0.685825
844.633	0.728386
845.818	0.779466
847.003	0.823923
848.188	0.861347
849.373	0.891767
850.558	0.915334
851.743	0.929036
852.928	0.939693
854.113	0.945654
855.298	0.948225
856.483	0.946793
857.668	0.939765
858.853	0.936071
860.038	0.918829
861.223	0.899211
862.408	0.878236
863.593	0.84822
864.778	0.813145
865.963	0.779457
867.148	0.751304
868.333	0.725864
869.518	0.694164
870.703	0.662448
871.888	0.632778
873.073	0.610233
874.258	0.574996
875.443	0.538803
876.628	0.519831
877.813	0.480086
878.998	0.453866
880.183	0.432319
881.368	0.408921
882.553	0.385103
883.738	0.365451
884.923	0.345939
886.108	0.331374
887.293	0.319866
888.478	0.308998
889.663	0.305309
890.848	0.302698
892.033	0.29452
893.218	0.290286
894.403	0.290321
895.588	0.292892
896.773	0.301119
897.958	0.304774
899.143	0.310697
900.328	0.328901
901.513	0.345965
902.698	0.35815
903.883	0.378989
905.068	0.380098
906.253	0.392226
907.438	0.409204
908.623	0.413439
909.808	0.420357
910.993	0.436782
912.178	0.456538
913.363	0.468253
914.548	0.474188
915.733	0.487068
916.918	0.497056
918.103	0.496463
919.288	0.499533
920.473	0.506341
921.658	0.50715
922.843	0.509946
924.028	0.513504
925.213	0.506598
926.398	0.497005
927.583	0.489429
928.768	0.47764
929.953	0.459633
931.138	0.437945
932.323	0.421662
933.508	0.412255
934.693	0.384284
935.878	0.361327
937.063	0.341265
938.248	0.309474
939.433	0.286988
940.618	0.259961
941.803	0.232973
942.988	0.212481
944.173	0.196142
945.358	0.180527
946.543	0.167125
947.728	0.156281
948.913	0.149722
950.098	0.141454
951.283	0.132701
952.468	0.122159
953.653	0.116875
954.838	0.12342
956.023	0.128968
957.208	0.129909
958.393	0.132724
959.578	0.136504
960.763	0.14049
961.948	0.149025
963.133	0.162164
964.318	0.172297
965.503	0.187549
966.688	0.203466
967.873	0.208272
969.058	0.224159
970.243	0.229161
971.428	0.249478
972.613	0.260859
973.798	0.260987
974.983	0.271294
976.168	0.27362
977.353	0.276707
978.538	0.281185
979.723	0.275308
980.908	0.272379
982.093	0.271974
983.278	0.261845
984.463	0.250734
985.648	0.245993
986.833	0.241337
988.018	0.237028
989.203	0.233449
990.388	0.222038
991.573	0.216017
992.758	0.221632
993.943	0.228151
995.128	0.236499
996.313	0.249297
997.498	0.264707
998.683	0.274043
999.868	0.276478
1001.05	0.285599
1002.24	0.298699
1003.42	0.311166
1004.61	0.315307
1005.79	0.320615
1006.98	0.326781
1008.16	0.334627
1009.35	0.345061
1010.53	0.346399
1011.72	0.336441
1012.9	0.328847
1014.09	0.317195
1015.27	0.313077
1016.46	0.315469
1017.64	0.319044
1018.83	0.322226
1020.01	0.329195
1021.2	0.324816
1022.38	0.340385
1023.57	0.348239
1024.75	0.368793
1025.94	0.384385
1027.12	0.401876
1028.31	0.419016
1029.49	0.437367
1030.68	0.463475
1031.86	0.484695
1033.05	0.507168
1034.23	0.527541
1035.42	0.550444
1036.6	0.575923
1037.79	0.604521
1038.97	0.636874
1040.16	0.656381
1041.34	0.685513
1042.53	0.70902
1043.71	0.73104
1044.9	0.749067
1046.08	0.765897
1047.27	0.791233
1048.45	0.811925
1049.64	0.830548
1050.82	0.837726
1052.01	0.840714
1053.19	0.846602
1054.38	0.851436
1055.56	0.845868
1056.75	0.832186
1057.93	0.82594
1059.12	0.818369
1060.3	0.799904
1061.49	0.782384
1062.67	0.771013
1063.86	0.758014
1065.04	0.738768
1066.23	0.718785
1067.41	0.700938
1068.6	0.686319
1069.78	0.675261
1070.97	0.659823
1072.15	0.639492
1073.34	0.621206
1074.52	0.607581
1075.71	0.589135
1076.89	0.565248
1078.08	0.550752
1079.26	0.539908
1080.45	0.524812
1081.63	0.508534
1082.82	0.496063
1084	0.481377
1085.19	0.471388
1086.37	0.464468
1087.56	0.454143
1088.74	0.450521
1089.93	0.450323
1091.11	0.444916
1092.3	0.446461
1093.48	0.443137
1094.67	0.444975
1095.85	0.436336
1097.04	0.425803
1098.22	0.415253
1099.41	0.412341
1100.59	0.409419
1101.78	0.412887
1102.96	0.413891
1104.15	0.404621
1105.33	0.402368
1106.52	0.395932
1107.7	0.392066
1108.89	0.389153
1110.07	0.374472
1111.26	0.369041
1112.44	0.366356
1113.63	0.362181
1114.81	0.366021
1116	0.36312
1117.18	0.357643
1118.37	0.34359
1119.55	0.327855
1120.74	0.308868
1121.92	0.289528
1123.11	0.272008
1124.29	0.254455
1125.48	0.227447
1126.66	0.204906
1127.85	0.183732
1129.03	0.158593
1130.22	0.134353
1131.4	0.118558
1132.59	0.100582
1133.77	0.0842653
1134.96	0.0672333
1136.14	0.0550892
1137.33	0.0376434
1138.51	0.0209434
1139.7	0.0153444
1140.88	0.00877936
1142.07	0.0068353
1143.25	0.0059754
1144.44	0.00318627
1145.62	0.00595958
1146.81	0.00695278
1147.99	0.00955911
1149.18	0.00400644
1150.36	0.00532738
1151.55	0.00997482
1152.73	0.0086562
1153.92	0.00979934
1155.1	0.0116799
1156.29	0.0198142
1157.47	0.0288534
1158.66	0.033403
1159.84	0.0319773
1161.03	0.0344175
1162.21	0.0335172
1163.4	0.0318535
1164.58	0.0308543
1165.77	0.0295372
1166.95	0.0293156
1168.14	0.026225
1169.32	0.0230459
1170.51	0.0272295
1171.69	0.0348037
1172.88	0.0408254
1174.06	0.0416948
1175.25	0.038608
1176.43	0.0320433
1177.62	0.0279378
1178.8	0.0269524
1179.99	0.0342371
1181.17	0.0474411
1182.36	0.0558047
1183.54	0.0622259
1184.73	0.0686249
1185.91	0.0742259
1187.1	0.0768393
1188.28	0.0775519
1189.47	0.0707504
1190.65	0.0691865
1191.84	0.0680285
1193.02	0.0731962
1194.21	0.0803624
1195.39	0.0894197
1196.58	0.0979255
1197.76	0.09771
1198.95	0.097336
1200.13	0.1021
1201.32	0.111408
1202.5	0.116662
1203.69	0.118414
1204.87	0.122808
1206.06	0.12548
1207.24	0.145624
1208.43	0.153057
1209.61	0.164029
1210.8	0.16372
1211.98	0.173825
1213.17	0.178533
1214.35	0.17598
1215.54	0.172909
1216.72	0.173892
1217.91	0.178027
1219.09	0.182525
1220.28	0.178487
1221.46	0.187794
1222.65	0.189044
1223.83	0.19134
1225.02	0.189158
1226.2	0.1966
1227.39	0.206311
1228.57	0.218867
1229.76	0.226991
1230.94	0.231196
1232.13	0.246437
1233.31	0.257686
1234.5	0.268328
1235.68	0.275785
1236.87	0.27882
1238.05	0.292955
1239.24	0.303212
1240.42	0.317284
1241.61	0.323783
1242.79	0.331889
1243.98	0.338057
1245.16	0.336893
1246.35	0.339772
1247.53	0.349274
1248.72	0.357594
1249.9	0.369818
1251.09	0.385282
1252.27	0.387631
1253.46	0.395444
1254.64	0.39972
1255.83	0.40192
1257.01	0.402661
1258.2	0.405674
1259.38	0.411106
1260.57	0.408572
1261.75	0.412099
1262.94	0.420698
1264.12	0.420076
1265.31	0.415235
1266.49	0.41534
1267.68	0.407895
1268.86	0.401784
1270.05	0.410417
1271.23	0.411653
1272.42	0.41004
1273.6	0.409497
1274.79	0.400842
1275.97	0.396969
1277.16	0.402906
1278.34	0.406471
1279.53	0.398766
1280.71	0.395967
1281.9	0.389387
1283.08	0.385623
1284.27	0.379685
1285.45	0.376973
1286.64	0.372124
1287.82	0.366923
1289.01	0.369236
1290.19	0.365821
1291.38	0.36504
1292.56	0.372284
1293.75	0.372101
1294.93	0.361283
1296.12	0.365174
1297.3	0.361208
1298.49	0.363886
1299.67	0.362657
1300.86	0.366198
1302.04	0.367551
1303.23	0.367987
1304.41	0.37427
1305.6	0.368522
1306.78	0.363307
1307.97	0.365236
1309.15	0.365466
1310.34	0.364576
1311.52	0.36263
1312.71	0.363323
1313.89	0.362538
1315.08	0.366133
1316.26	0.369664
1317.45	0.376819
1318.63	0.377773
1319.82	0.373785
1321	0.368247
1322.19	0.360476
1323.37	0.35657
1324.56	0.353474
1325.74	0.353083
1326.93	0.343614
1328.11	0.334757
1329.3	0.33036
1330.48	0.329401
1331.67	0.322026
1332.85	0.316879
1334.04	0.30035
1335.22	0.293026
1336.41	0.288883
1337.59	0.287224
1338.78	0.283783
1339.96	0.283688
1341.15	0.277226
1342.33	0.280857
1343.52	0.282569
1344.7	0.284011
1345.89	0.285546
1347.07	0.284474
1348.26	0.27999
1349.44	0.278039
1350.63	0.277228
1351.81	0.2768
1353	0.278444
1354.18	0.282503
1355.37	0.278969
1356.55	0.277426
1357.74	0.277985
1358.92	0.272582
1360.11	0.262971
1361.29	0.259622
1362.48	0.262162
1363.66	0.256074
1364.85	0.258584
1366.03	0.253345
1367.22	0.257549
1368.4	0.259705
1369.59	0.25112
1370.77	0.241257
1371.96	0.233112
1373.14	0.230769
1374.33	0.232458
1375.51	0.234885
1376.7	0.235083
1377.88	0.238813
1379.07	0.233597
1380.25	0.229664
1381.44	0.231685
1382.62	0.228613
1383.81	0.225981
1384.99	0.220193
1386.18	0.226604
1387.36	0.229072
1388.55	0.233324
1389.73	0.236421
1390.92	0.240527
1392.1	0.241404
1393.29	0.244141
1394.47	0.243408
1395.66	0.243509
1396.84	0.243343
1398.03	0.237899
1399.21	0.240519
1400.4	0.240618
1401.58	0.246077
1402.77	0.245831
1403.95	0.244445
1405.14	0.239405
1406.32	0.241614
1407.51	0.241556
1408.69	0.235842
1409.88	0.233603
1411.06	0.232839
1412.25	0.230921
1413.43	0.230262
1414.62	0.23504
1415.8	0.234433
1416.99	0.232819
1418.17	0.226661
1419.36	0.222814
1420.54	0.223695
1421.73	0.229976
1422.91	0.223366
1424.1	0.221811
1425.28	0.229647
1426.47	0.228789
1427.65	0.22398
1428.84	0.22804
1430.02	0.232965
1431.21	0.23328
1432.39	0.236285
1433.58	0.241621
1434.76	0.244536
1435.95	0.251278
1437.13	0.257348
1438.32	0.263716
1439.5	0.275072
1440.69	0.285269
1441.87	0.289026
1443.06	0.301224
1444.24	0.317724
1445.43	0.335842
1446.61	0.352282
1447.8	0.370753
1448.98	0.385687
1450.17	0.402635
1451.35	0.422945
1452.54	0.444431
1453.72	0.465914
1454.91	0.483608
1456.09	0.50155
1457.28	0.518863
1458.46	0.540521
1459.65	0.557604
1460.83	0.571984
1462.02	0.581646
1463.2	0.58293
1464.39	0.586455
1465.57	0.592823
1466.76	0.592059
1467.94	0.588612
1469.13	0.577582
1470.31	0.56494
1471.5	0.550622
1472.68	0.531612
1473.87	0.511389
1475.05	0.481664
1476.24	0.45399
1477.42	0.427558
1478.61	0.397517
1479.79	0.377953
1480.98	0.346165
1482.16	0.313598
1483.35	0.287425
1484.53	0.262101
1485.72	0.238339
1486.9	0.217736
1488.09	0.200875
1489.27	0.1848
1490.46	0.166358
1491.64	0.157517
1492.83	0.147154
1494.01	0.135077
1495.2	0.124311
1496.38	0.111232
1497.57	0.112225
1498.75	0.113576
1499.94	0.109946
1501.12	0.103659
1502.31	0.0978617
1503.49	0.0955012
1504.68	0.0905006
1505.86	0.0933404
1507.05	0.0938722
1508.23	0.089672
1509.42	0.0826063
1510.6	0.0751951
1511.79	0.0755218
1512.97	0.0751409
1514.16	0.0662409
1515.34	0.0585963
1516.53	0.0518501
1517.71	0.0507071
1518.9	0.0528718
1520.08	0.0512221
1521.27	0.0439588
1522.45	0.036313
1523.64	0.0281507
1524.82	0.028789
1526.01	0.0337868
1527.19	0.0388751
1528.38	0.0376094
1529.56	0.0366682
1530.75	0.0380252
1531.93	0.0404304
1533.12	0.0403607
1534.3	0.0373203
1535.49	0.0280093
1536.67	0.0255695
1537.86	0.0313087
1539.04	0.0279434
1540.23	0.0299819
1541.41	0.028224
1542.6	0.0273575
1543.78	0.0243242
1544.97	0.0208002
1546.15	0.0208118
1547.34	0.0205908
1548.52	0.0193792
1549.71	0.0196187
1550.89	0.0213386
1552.08	0.022278
1553.26	0.0188671
1554.45	0.0157211
1555.63	0.0150202
1556.82	0.0139218
1558	0.00986921
1559.19	0.00391978
1560.37	0.00326734
1561.56	0.00322823
1562.74	0.00193255
1563.93	0.00434266
1565.11	0.00377042
1566.3	0.0062233
1567.48	0.00848133
1568.67	0.00990348
1569.85	0.0074849
1571.04	0.00936351
1572.22	0.00884552
1573.41	0.00674751
1574.59	0.00528425
1575.78	0.00825994
1576.96	0.0103343
1578.15	0.00695617
1579.33	0.00604058
1580.52	0.00351219
1581.7	0.00361833
1582.89	0.00314327
1584.07	-0.000136478
1585.26	-0.00189264
1586.44	-0.00123623
1587.63	-0.00158457
1588.81	0.00156337
1590	0.00633506
1591.18	0.00846872
1592.37	0.00902148
1593.55	0.00855136
1594.74	0.0096481
1595.92	0.0112861
1597.11	0.0162671
1598.29	0.0171338
1599.48	0.0168494
1600.66	0.0185316
1601.85	0.0208988
1603.03	0.0228484
1604.22	0.0232188
1605.4	0.0209804
1606.59	0.020582
1607.77	0.0207427
1608.96	0.0219919
1610.14	0.0258326
1611.33	0.0275384
1612.51	0.0274824
1613.7	0.0250005
1614.88	0.0296584
1616.07	0.0330011
1617.25	0.0352845
1618.44	0.0331625
1619.62	0.0333083
1620.81	0.0377909
1621.99	0.0395541
1623.18	0.0407129
1624.36	0.0368484
1625.55	0.0357296
1626.73	0.0298321
1627.92	0.0315733
1629.1	0.0350282
1630.29	0.0310948
1631.47	0.0334541
1632.66	0.0349488
1633.84	0.0379561
1635.03	0.0405953
1636.21	0.036674
1637.4	0.0367561
1638.58	0.0409559
1639.77	0.0497022
1640.95	0.0531209
1642.14	0.0587426
1643.32	0.060739
1644.51	0.0611129
1645.69	0.0661577
1646.88	0.0651251
1648.06	0.0687686
1649.25	0.073022
1650.43	0.0711412
1651.62	0.0798816
1652.8	0.0852345
1653.99	0.0853054
1655.17	0.0832667
1656.36	0.085778
1657.54	0.0925712
1658.73	0.0974094
1659.91	0.0991546
1661.1	0.101694
1662.28	0.104322
1663.47	0.109506
1664.65	0.107121
1665.84	0.106148
1667.02	0.109377
1668.21	0.108081
1669.39	0.109009
1670.58	0.112297
1671.76	0.111109
1672.95	0.112822
1674.13	0.108592
1675.32	0.106097
1676.5	0.100494
1677.69	0.0994226
1678.87	0.0990902
1680.06	0.0966943
1681.24	0.0999467
1682.43	0.103455
1683.61	0.0977857
1684.8	0.0998824
1685.98	0.0972944
1687.17	0.0962972
1688.35	0.0998791
1689.54	0.0959151
1690.72	0.0920296
1691.91	0.092267
1693.09	0.0923863
1694.28	0.0949197
1695.46	0.0885443
1696.65	0.0924688
1697.83	0.0923027
1699.02	0.0891937
1700.2	0.0899267
1701.39	0.0863048
1702.57	0.0839949
1703.76	0.0811557
1704.94	0.0758311
1706.13	0.0759559
1707.31	0.0787438
1708.5	0.0775443
1709.68	0.0788702
1710.87	0.0787059
1712.05	0.0809332
1713.24	0.0780594
1714.42	0.0767235
1715.61	0.0737824
1716.79	0.0701503
1717.98	0.072469
1719.16	0.0719573
1720.35	0.0733014
1721.53	0.0778024
1722.72	0.0805062
1723.9	0.0840374
1725.09	0.0824979
1726.27	0.0806803
1727.46	0.0727768
1728.64	0.0723576
1729.83	0.0708926
1731.01	0.0725641
1732.2	0.0764577
1733.38	0.0780814
1734.57	0.0789611
1735.75	0.0777149
1736.94	0.0757615
1738.12	0.0745
1739.31	0.0659626
1740.49	0.0647088
1741.68	0.064613
1742.86	0.0633401
1744.05	0.0649
1745.23	0.0615572
1746.42	0.0622337
1747.6	0.0645239
1748.79	0.0566892
1749.97	0.056296
1751.16	0.0551217
1752.34	0.0501783
1753.53	0.0435272
1754.71	0.0442811
1755.9	0.0454126
1757.08	0.0438751
1758.27	0.043076
1759.45	0.0458105
1760.64	0.040553
1761.82	0.0418907
1763.01	0.0399062
1764.19	0.0409893
1765.38	0.0408788
1766.56	0.0383043
1767.74	0.0420404
1768.93	0.0473612
1770.12	0.0503502
1771.3	0.0471782
1772.49	0.0452012
1773.67	0.0453084
1774.85	0.0435983
1776.04	0.0411179
1777.23	0.038219
1778.41	0.0318877
1779.6	0.0272812
1780.78	0.0241527
1781.97	0.0213077
1783.15	0.0179916
1784.34	0.0119788
1785.52	0.00635279
1786.7	0.00331607
1787.89	-0.00393237
1789.08	-0.00659796
1790.26	-0.00561068
1791.45	-0.00203659
1792.63	0.000660531
1793.81	0.00269761
1795	0.00769199
