405	0.0247358
406.185	0.053816
407.37	0.0800776
408.555	0.107878
409.74	0.134634
410.925	0.158125
412.11	0.179371
413.295	0.201722
414.48	0.22693
415.665	0.248453
416.85	0.26674
418.035	0.27272
419.22	0.266568
420.405	0.248546
421.59	0.228145
422.775	0.219646
423.96	0.2148
425.145	0.197416
426.33	0.186287
427.515	0.16552
428.7	0.141965
429.885	0.123907
431.07	0.106373
432.255	0.0836598
433.44	0.0703067
434.625	0.046356
435.81	0.0274164
436.995	0.00612726
438.18	0.000292844
439.365	0.00299951
440.55	0.00994709
441.735	0.0156537
442.92	0.00781635
444.105	0.00234801
445.29	0.016045
446.475	0.0219601
447.66	0.0330345
448.845	0.0416177
450.03	0.0410963
451.215	0.0395369
452.4	0.0442368
453.585	0.0366271
454.77	0.0398481
455.955	0.0443072
457.14	0.0692647
458.325	0.0850565
459.51	0.0940402
460.695	0.101021
461.88	0.108382
463.065	0.123636
464.25	0.155157
465.435	0.177763
466.62	0.212565
467.805	0.243561
468.99	0.278553
470.175	0.324444
471.36	0.373948
472.545	0.42078
473.73	0.473422
474.915	0.522082
476.1	0.567071
477.285	0.59018
478.47	0.626687
479.655	0.674114
480.84	0.719291
482.025	0.756419
483.21	0.78898
484.395	0.819441
485.58	0.84164
486.765	0.846142
487.95	0.850065
489.135	0.843139
490.32	0.829683
491.505	0.81402
492.69	0.79792
493.875	0.778584
495.06	0.752173
496.245	0.734312
497.43	0.727804
498.615	0.701185
499.8	0.670797
500.985	0.640311
502.17	0.605697
503.355	0.566204
504.54	0.525842
505.725	0.489901
506.91	0.467014
508.095	0.444792
509.28	0.415024
510.465	0.394018
511.65	0.381852
512.835	0.359028
514.02	0.330198
515.205	0.312265
516.39	0.303321
517.575	0.285537
518.76	0.261889
519.945	0.249772
521.13	0.233107
522.315	0.228993
523.5	0.218222
524.685	0.210332
525.87	0.20279
527.055	0.182918
528.24	0.174896
529.425	0.185561
530.61	0.180584
531.795	0.175327
532.98	0.184421
534.164	0.192791
535.35	0.191903
536.535	0.191213
537.719	0.20082
538.905	0.211284
540.089	0.203985
541.275	0.216226
542.46	0.222561
543.644	0.239051
544.83	0.24403
546.014	0.249635
547.199	0.264954
548.385	0.279579
549.569	0.284717
550.754	0.287875
551.94	0.287465
553.124	0.290468
554.309	0.291837
555.494	0.297645
556.679	0.292868
557.865	0.28874
559.049	0.294472
560.234	0.300274
561.419	0.299697
562.604	0.304014
563.789	0.308985
564.974	0.310576
566.159	0.326239
567.344	0.315679
568.529	0.310958
569.714	0.307183
570.899	0.307707
572.084	0.310791
573.269	0.311781
574.454	0.312366
575.639	0.311504
576.824	0.304959
578.009	0.301367
579.194	0.291743
580.379	0.287254
581.564	0.276005
582.749	0.263632
583.934	0.25443
585.119	0.246219
586.304	0.238717
587.489	0.2357
588.674	0.233076
589.859	0.235763
591.044	0.227393
592.229	0.219156
593.414	0.214448
594.599	0.205502
595.784	0.202737
596.969	0.206944
598.154	0.209362
599.339	0.2088
600.524	0.207733
601.709	0.215349
602.894	0.216501
604.079	0.222429
605.264	0.217237
606.449	0.218098
607.634	0.215506
608.819	0.217406
610.004	0.221096
611.189	0.219099
612.374	0.221764
613.559	0.227152
614.744	0.222383
615.929	0.211308
617.114	0.203324
618.299	0.192936
619.484	0.178223
620.669	0.164612
621.854	0.153696
623.039	0.146582
624.224	0.142908
625.409	0.133702
626.594	0.110553
627.779	0.104334
628.964	0.0821451
630.149	0.0748286
631.334	0.0621721
632.519	0.0398973
633.704	0.0197405
634.889	0.00690993
636.074	-0.00331885
637.259	-0.00699056
638.444	0.00186218
639.629	0.00886036
640.814	0.00914463
641.999	0.0099058
643.184	0.00099438
644.369	-0.0105657
645.554	-0.00146443
646.739	0.00664198
647.924	0.0126477
649.109	0.0173148
650.294	0.0222567
651.479	0.0303008
652.664	0.041354
653.849	0.0534154
655.034	0.0603746
656.219	0.0616577
657.404	0.0613529
658.589	0.0573412
659.774	0.0636319
660.959	0.0601276
662.144	0.0626719
663.329	0.0759772
664.514	0.08943
665.699	0.0965969
666.884	0.10102
668.069	0.106596
669.254	0.107389
670.439	0.110524
671.624	0.110438
672.809	0.116845
673.994	0.123873
675.179	0.128595
676.364	0.131899
677.549	0.138303
678.734	0.145155
679.919	0.152125
681.104	0.158013
682.289	0.152241
683.474	0.143553
684.659	0.117129
685.844	0.100761
687.029	0.0787214
688.214	0.079211
689.399	0.0733844
690.584	0.0795517
691.769	0.0796066
692.954	0.0693552
694.139	0.059632
695.324	0.0560218
696.509	0.0555402
697.694	0.0497861
698.879	0.0350947
700.064	0.0332419
701.249	0.0291798
702.434	0.0254563
703.619	0.0388815
704.804	0.0540808
705.989	0.0695578
707.174	0.075462
708.359	0.0794334
709.544	0.07677
710.729	0.0741571
711.914	0.0844859
713.099	0.0850633
714.284	0.0830808
715.469	0.0664997
716.654	0.0635897
717.839	0.072386
719.024	0.0623202
720.209	0.0563506
721.394	0.0615348
722.579	0.0608984
723.764	0.052139
724.949	0.0786159
726.134	0.157845
727.319	0.255049
728.504	0.353167
729.689	0.445213
730.874	0.438307
732.059	0.453589
733.244	0.463697
734.429	0.472002
735.614	0.47427
736.799	0.475954
737.984	0.488077
739.169	0.496914
740.354	0.494201
741.539	0.496663
742.724	0.505697
743.909	0.481396
745.094	0.395402
746.279	0.28299
747.464	0.180792
748.649	0.0791939
749.834	0.0727811
751.019	0.0614635
752.204	0.0594991
753.389	0.0559867
754.574	0.0564857
755.759	0.0560354
756.944	0.0503779
758.129	0.0533172
759.314	0.0590195
760.499	0.0574295
761.684	0.0550508
762.869	0.0588779
764.054	0.0666385
765.239	0.0729843
766.424	0.0708014
767.609	0.0597901
768.794	0.0607258
769.979	0.0552159
771.164	0.0486831
772.349	0.0476463
773.534	0.0458505
774.719	0.0386807
775.904	0.0344796
777.089	0.0319528
778.274	0.0333954
779.459	0.0353485
780.644	0.0299704
781.829	0.0225326
783.014	0.0140996
784.199	0.0113734
785.384	0.0044749
786.569	0.0147416
787.754	0.0191666
788.939	0.022696
790.124	0.0184544
791.309	0.0168827
792.494	0.0148498
793.679	0.0126799
794.864	0.0108066
796.049	0.00326413
797.234	-0.00372673
798.419	-0.0052032
799.604	-0.00357755
800.789	0.00657091
801.974	0.02381
803.159	0.0351676
804.344	0.0636734
805.529	0.0651055
806.714	0.0746505
807.899	0.0892681
809.084	0.107421
810.269	0.128556
811.454	0.151676
812.639	0.186667
813.824	0.220104
815.009	0.260223
816.193	0.291496
817.379	0.314605
818.564	0.341158
819.748	0.366309
820.934	0.38475
822.118	0.396673
823.303	0.399157
824.489	0.407612
825.673	0.421347
826.859	0.421425
828.043	0.442075
829.228	0.456287
830.414	0.473026
831.598	0.469928
832.783	0.469577
833.969	0.468725
835.153	0.477333
836.338	0.502846
837.523	0.520718
838.708	0.530479
839.893	0.548638
841.078	0.581034
842.263	0.625503
843.448	0.672283
844.633	0.717091
845.818	0.76708
847.003	0.791432
848.188	0.823706
849.373	0.842324
850.558	0.878156
851.743	0.897233
852.928	0.920875
854.113	0.929807
855.298	0.927801
856.483	0.934746
857.668	0.942547
858.853	0.948225
860.038	0.931695
861.223	0.903004
862.408	0.875854
863.593	0.847229
864.778	0.821954
865.963	0.799133
867.148	0.764647
868.333	0.725844
869.518	0.693947
870.703	0.664755
871.888	0.631309
873.073	0.603669
874.258	0.573247
875.443	0.534058
876.628	0.509389
877.813	0.476288
878.998	0.460694
880.183	0.445868
881.368	0.422048
882.553	0.401234
883.738	0.384297
884.923	0.365923
886.108	0.355736
887.293	0.347838
888.478	0.349823
889.663	0.353069
890.848	0.347835
892.033	0.345079
893.218	0.35108
894.403	0.361074
895.588	0.360923
896.773	0.365594
897.958	0.37023
899.143	0.369598
900.328	0.379225
901.513	0.3905
902.698	0.392811
903.883	0.398035
905.068	0.407522
906.253	0.416493
907.438	0.423003
908.623	0.431218
909.808	0.448867
910.993	0.458556
912.178	0.460199
913.363	0.467381
914.548	0.484838
915.733	0.500809
916.918	0.518458
918.103	0.531132
919.288	0.540935
920.473	0.551724
921.658	0.560153
922.843	0.570748
924.028	0.576412
925.213	0.57526
926.398	0.563528
927.583	0.551962
928.768	0.532232
929.953	0.522069
931.138	0.520754
932.323	0.514917
933.508	0.490724
934.693	0.466694
935.878	0.444674
937.063	0.427399
938.248	0.393737
939.433	0.366548
940.618	0.341229
941.803	0.321458
942.988	0.302886
944.173	0.285225
945.358	0.272542
946.543	0.265804
947.728	0.264276
948.913	0.262175
950.098	0.243127
951.283	0.229076
952.468	0.227112
953.653	0.223223
954.838	0.223489
956.023	0.227391
957.208	0.234528
958.393	0.24671
959.578	0.253167
960.763	0.266615
961.948	0.276497
963.133	0.286819
964.318	0.296944
965.503	0.297103
966.688	0.295375
967.873	0.294971
969.058	0.314955
970.243	0.316736
971.428	0.317825
972.613	0.320489
973.798	0.324472
974.983	0.340192
976.168	0.343773
977.353	0.346119
978.538	0.337058
979.723	0.333363
980.908	0.327036
982.093	0.321537
983.278	0.327634
984.463	0.335632
985.648	0.334131
986.833	0.330286
988.018	0.326824
989.203	0.319054
990.388	0.309591
991.573	0.303344
992.758	0.296652
993.943	0.285932
995.128	0.28106
996.313	0.284494
997.498	0.280361
998.683	0.272361
999.868	0.273034
1001.05	0.273667
1002.24	0.274018
1003.42	0.275259
1004.61	0.274218
1005.79	0.277274
1006.98	0.284599
1008.16	0.29196
1009.35	0.296182
1010.53	0.297123
1011.72	0.301551
1012.9	0.311253
1014.09	0.312933
1015.27	0.311155
1016.46	0.319207
1017.64	0.324079
1018.83	0.324695
1020.01	0.325509
1021.2	0.328433
1022.38	0.339171
1023.57	0.360194
1024.75	0.363188
1025.94	0.37927
1027.12	0.403464
1028.31	0.416345
1029.49	0.429016
1030.68	0.436752
1031.86	0.44861
1033.05	0.473563
1034.23	0.504441
1035.42	0.53398
1036.6	0.552218
1037.79	0.569556
1038.97	0.589
1040.16	0.610771
1041.34	0.620646
1042.53	0.639425
1043.71	0.662441
1044.9	0.683847
1046.08	0.700215
1047.27	0.713891
1048.45	0.731973
1049.64	0.743909
1050.82	0.745839
1052.01	0.756788
1053.19	0.763531
1054.38	0.765298
1055.56	0.772818
1056.75	0.777244
1057.93	0.770345
1059.12	0.764312
1060.3	0.756862
1061.49	0.745766
1062.67	0.728825
1063.86	0.715521
1065.04	0.708234
1066.23	0.692787
1067.41	0.681798
1068.6	0.677173
1069.78	0.660223
1070.97	0.630874
1072.15	0.612244
1073.34	0.601876
1074.52	0.586052
1075.71	0.571612
1076.89	0.562892
1078.08	0.54676
1079.26	0.529836
1080.45	0.521451
1081.63	0.515717
1082.82	0.502518
1084	0.490179
1085.19	0.483539
1086.37	0.471968
1087.56	0.459749
1088.74	0.456015
1089.93	0.461877
1091.11	0.454708
1092.3	0.443123
1093.48	0.431876
1094.67	0.417949
1095.85	0.405877
1097.04	0.411019
1098.22	0.405177
1099.41	0.399182
1100.59	0.394546
1101.78	0.401076
1102.96	0.391476
1104.15	0.386551
1105.33	0.385682
1106.52	0.385569
1107.7	0.381065
1108.89	0.380791
1110.07	0.390604
1111.26	0.396786
1112.44	0.406924
1113.63	0.429898
1114.81	0.426223
1116	0.419669
1117.18	0.406204
1118.37	0.398549
1119.55	0.390792
1120.74	0.384764
1121.92	0.374687
1123.11	0.362094
1124.29	0.34905
1125.48	0.3254
1126.66	0.302621
1127.85	0.272816
1129.03	0.245663
1130.22	0.219195
1131.4	0.188915
1132.59	0.168083
1133.77	0.144627
1134.96	0.131308
1136.14	0.110776
1137.33	0.0902082
1138.51	0.0824298
1139.7	0.0758304
1140.88	0.0683577
1142.07	0.0523172
1143.25	0.0469415
1144.44	0.042291
1145.62	0.0391406
1146.81	0.0381913
1147.99	0.0384196
1149.18	0.0319138
1150.36	0.0300312
1151.55	0.0372312
1152.73	0.04039
1153.92	0.0462559
1155.1	0.0504976
1156.29	0.0473427
1157.47	0.043732
1158.66	0.0397041
1159.84	0.0471913
1161.03	0.0454238
1162.21	0.0398855
1163.4	0.02874
1164.58	0.0262774
1165.77	0.025405
1166.95	0.0230365
1168.14	0.0204832
1169.32	0.0163649
1170.51	0.0138182
1171.69	0.0137591
1172.88	0.0161893
1174.06	0.0160777
1175.25	0.0163758
1176.43	0.0162088
1177.62	0.0125013
1178.8	0.0104267
1179.99	0.0161358
1181.17	0.0256303
1182.36	0.025864
1183.54	0.028626
1184.73	0.0350737
1185.91	0.0375985
1187.1	0.0373268
1188.28	0.0346124
1189.47	0.0282768
1190.65	0.0243656
1191.84	0.0254435
1193.02	0.0288354
1194.21	0.0247887
1195.39	0.0337156
1196.58	0.0511031
1197.76	0.0597519
1198.95	0.0601164
1200.13	0.0644997
1201.32	0.0580393
1202.5	0.0541644
1203.69	0.0535864
1204.87	0.0628659
1206.06	0.0755503
1207.24	0.0801054
1208.43	0.0826923
1209.61	0.085085
1210.8	0.0877638
1211.98	0.0989403
1213.17	0.0980253
1214.35	0.0876749
1215.54	0.087435
1216.72	0.0956992
1217.91	0.0927247
1219.09	0.0918575
1220.28	0.10323
1221.46	0.118621
1222.65	0.120608
1223.83	0.112448
1225.02	0.118697
1226.2	0.133763
1227.39	0.131716
1228.57	0.13396
1229.76	0.142903
1230.94	0.143695
1232.13	0.151601
1233.31	0.158224
1234.5	0.169346
1235.68	0.189235
1236.87	0.201585
1238.05	0.20378
1239.24	0.211474
1240.42	0.224471
1241.61	0.236833
1242.79	0.23778
1243.98	0.238695
1245.16	0.254617
1246.35	0.262329
1247.53	0.262276
1248.72	0.26674
1249.9	0.274348
1251.09	0.279179
1252.27	0.283286
1253.46	0.283584
1254.64	0.286421
1255.83	0.282659
1257.01	0.281852
1258.2	0.286173
1259.38	0.285309
1260.57	0.286468
1261.75	0.290626
1262.94	0.285601
1264.12	0.285613
1265.31	0.29646
1266.49	0.304118
1267.68	0.300272
1268.86	0.30377
1270.05	0.29222
1271.23	0.299958
1272.42	0.298032
1273.6	0.306741
1274.79	0.293692
1275.97	0.291288
1277.16	0.295091
1278.34	0.290262
1279.53	0.284279
1280.71	0.279016
1281.9	0.263402
1283.08	0.249479
1284.27	0.240818
1285.45	0.244148
1286.64	0.246065
1287.82	0.236648
1289.01	0.230062
1290.19	0.226053
1291.38	0.221994
1292.56	0.224331
1293.75	0.225682
1294.93	0.222303
1296.12	0.214838
1297.3	0.202415
1298.49	0.216848
1299.67	0.224901
1300.86	0.233201
1302.04	0.22515
1303.23	0.220834
1304.41	0.236708
1305.6	0.246493
1306.78	0.24118
1307.97	0.238868
1309.15	0.238011
1310.34	0.225878
1311.52	0.220458
1312.71	0.221828
1313.89	0.228692
1315.08	0.231647
1316.26	0.227444
1317.45	0.224894
1318.63	0.226104
1319.82	0.229597
1321	0.221813
1322.19	0.210504
1323.37	0.207379
1324.56	0.201507
1325.74	0.202467
1326.93	0.203205
1328.11	0.202903
1329.3	0.20585
1330.48	0.206042
1331.67	0.196076
1332.85	0.198063
1334.04	0.199097
1335.22	0.197053
1336.41	0.190848
1337.59	0.172693
1338.78	0.168922
1339.96	0.170754
1341.15	0.172553
1342.33	0.165657
1343.52	0.151625
1344.7	0.144759
1345.89	0.134526
1347.07	0.132123
1348.26	0.128318
1349.44	0.119592
1350.63	0.108723
1351.81	0.103563
1353	0.102867
1354.18	0.109568
1355.37	0.110671
1356.55	0.104047
1357.74	0.0998716
1358.92	0.107563
1360.11	0.120403
1361.29	0.113416
1362.48	0.125898
1363.66	0.120189
1364.85	0.118207
1366.03	0.125071
1367.22	0.12952
1368.4	0.134601
1369.59	0.134518
1370.77	0.129387
1371.96	0.129993
1373.14	0.1312
1374.33	0.130758
1375.51	0.130604
1376.7	0.125437
1377.88	0.135178
1379.07	0.132645
1380.25	0.125881
1381.44	0.122023
1382.62	0.116009
1383.81	0.116406
1384.99	0.109609
1386.18	0.104296
1387.36	0.113883
1388.55	0.11473
1389.73	0.114548
1390.92	0.119658
1392.1	0.118446
1393.29	0.114955
1394.47	0.110944
1395.66	0.107316
1396.84	0.10687
1398.03	0.107879
1399.21	0.11748
1400.4	0.11572
1401.58	0.120294
1402.77	0.12158
1403.95	0.113679
1405.14	0.111666
1406.32	0.100855
1407.51	0.0978389
1408.69	0.0986463
1409.88	0.104287
1411.06	0.110084
1412.25	0.115422
1413.43	0.118226
1414.62	0.121434
1415.8	0.121483
1416.99	0.125241
1418.17	0.124032
1419.36	0.125104
1420.54	0.12178
1421.73	0.113402
1422.91	0.112163
1424.1	0.112228
1425.28	0.112839
1426.47	0.114184
1427.65	0.11738
1428.84	0.108182
1430.02	0.111368
1431.21	0.114479
1432.39	0.11535
1433.58	0.118676
1434.76	0.126946
1435.95	0.131211
1437.13	0.138687
1438.32	0.157594
1439.5	0.186704
1440.69	0.199897
1441.87	0.218977
1443.06	0.224349
1444.24	0.232436
1445.43	0.248422
1446.61	0.256169
1447.8	0.27704
1448.98	0.296647
1450.17	0.316282
1451.35	0.333501
1452.54	0.361472
1453.72	0.389651
1454.91	0.410377
1456.09	0.410201
1457.28	0.415542
1458.46	0.41854
1459.65	0.439798
1460.83	0.46483
1462.02	0.480943
1463.2	0.506167
1464.39	0.511998
1465.57	0.513912
1466.76	0.518504
1467.94	0.515684
1469.13	0.499881
1470.31	0.475287
1471.5	0.453369
1472.68	0.447251
1473.87	0.445818
1475.05	0.435422
1476.24	0.418223
1477.42	0.385791
1478.61	0.370774
1479.79	0.336768
1480.98	0.313638
1482.16	0.288934
1483.35	0.254916
1484.53	0.221372
1485.72	0.202813
1486.9	0.189216
1488.09	0.174056
1489.27	0.151344
1490.46	0.128611
1491.64	0.11643
1492.83	0.0993532
1494.01	0.0921166
1495.2	0.074172
1496.38	0.0662341
1497.57	0.0624834
1498.75	0.0586739
1499.94	0.0628337
1501.12	0.0638785
1502.31	0.0477694
1503.49	0.0376233
1504.68	0.036006
1505.86	0.0415265
1507.05	0.0440086
1508.23	0.0331411
1509.42	0.0235924
1510.6	0.0187223
1511.79	0.017309
1512.97	0.0224205
1514.16	0.0273131
1515.34	0.0227777
1516.53	0.0165397
1517.71	0.0166586
1518.9	0.0245435
1520.08	0.033954
1521.27	0.035491
1522.45	0.0392418
1523.64	0.0304436
1524.82	0.030557
1526.01	0.0358522
1527.19	0.0392061
1528.38	0.0324359
1529.56	0.0196534
1530.75	0.014316
1531.93	0.0189685
1533.12	0.0218521
1534.3	0.027812
1535.49	0.0318177
1536.67	0.0223326
1537.86	0.0162801
1539.04	0.0146498
1540.23	0.0211954
1541.41	0.0234624
1542.6	0.0195743
1543.78	0.0132996
1544.97	0.0188749
1546.15	0.027561
1547.34	0.0284129
1548.52	0.024843
1549.71	0.0200978
1550.89	0.0147786
1552.08	0.0140978
1553.26	0.0272153
1554.45	0.038255
1555.63	0.0384253
1556.82	0.0440701
1558	0.0433669
1559.19	0.0461278
1560.37	0.0521714
1561.56	0.0523061
1562.74	0.0431781
1563.93	0.0400912
1565.11	0.0383695
1566.3	0.0380627
1567.48	0.0390727
1568.67	0.03439
1569.85	0.0228253
1571.04	0.0141055
1572.22	0.00661915
1573.41	0.00296608
1574.59	0.00605337
1575.78	0.00212866
1576.96	-0.00391503
1578.15	0.00214018
1579.33	-0.000170083
1580.52	-0.00080143
1581.7	0.00688318
1582.89	0.01236
1584.07	0.0155374
1585.26	0.0240885
1586.44	0.0308214
1587.63	0.0336759
1588.81	0.0401384
1590	0.042016
1591.18	0.0457909
1592.37	0.0507234
1593.55	0.0507795
1594.74	0.0465991
1595.92	0.0493613
1597.11	0.0576707
1598.29	0.0563243
1599.48	0.0560732
1600.66	0.0565472
1601.85	0.0523559
1603.03	0.0504264
1604.22	0.0543084
1605.4	0.0525647
1606.59	0.0478901
1607.77	0.042963
1608.96	0.0405041
1610.14	0.0485631
1611.33	0.0572435
1612.51	0.0610601
1613.7	0.0481948
1614.88	0.043132
1616.07	0.041457
1617.25	0.0414289
1618.44	0.041453
1619.62	0.0432238
1620.81	0.0390616
1621.99	0.0364886
1623.18	0.0379417
1624.36	0.0377787
1625.55	0.0380141
1626.73	0.0263793
1627.92	0.0243103
1629.1	0.0294277
1630.29	0.0334284
1631.47	0.0423117
1632.66	0.0478637
1633.84	0.0482254
1635.03	0.0481627
1636.21	0.046941
1637.4	0.0491206
1638.58	0.0473041
1639.77	0.0483299
1640.95	0.0494159
1642.14	0.0580526
1643.32	0.0600661
1644.51	0.0568132
1645.69	0.0589832
1646.88	0.0492234
1648.06	0.0489283
1649.25	0.055822
1650.43	0.0465173
1651.62	0.0508564
1652.8	0.0579105
1653.99	0.0699216
1655.17	0.0762766
1656.36	0.0807781
1657.54	0.081727
1658.73	0.0800174
1659.91	0.0826597
1661.1	0.087158
1662.28	0.0887205
1663.47	0.101688
1664.65	0.0983897
1665.84	0.102095
1667.02	0.10399
1668.21	0.109805
1669.39	0.106933
1670.58	0.105253
1671.76	0.106495
1672.95	0.10785
1674.13	0.101231
1675.32	0.0990542
1676.5	0.0946799
1677.69	0.0909413
1678.87	0.0898335
1680.06	0.0859155
1681.24	0.0787956
1682.43	0.0749599
1683.61	0.0787413
1684.8	0.0747635
1685.98	0.0717369
1687.17	0.0631797
1688.35	0.0627174
1689.54	0.0650317
1690.72	0.06862
1691.91	0.0716337
1693.09	0.0718888
1694.28	0.0717229
1695.46	0.0680496
1696.65	0.0728062
1697.83	0.0686877
1699.02	0.0657855
1700.2	0.0571448
1701.39	0.0541402
1702.57	0.0543429
1703.76	0.0545291
1704.94	0.0560523
1706.13	0.0585901
1707.31	0.0614727
1708.5	0.0536505
1709.68	0.0567568
1710.87	0.0643372
1712.05	0.0658775
1713.24	0.0724191
1714.42	0.0840033
1715.61	0.0937187
1716.79	0.0996239
1717.98	0.102685
1719.16	0.105254
1720.35	0.110471
1721.53	0.109859
1722.72	0.110999
1723.9	0.115533
1725.09	0.119534
1726.27	0.114243
1727.46	0.108022
1728.64	0.102594
1729.83	0.0915649
1731.01	0.0892061
1732.2	0.0820285
1733.38	0.0808861
1734.57	0.0781871
1735.75	0.0753656
1736.94	0.0713618
1738.12	0.0724202
1739.31	0.0743248
1740.49	0.0711717
1741.68	0.0697659
1742.86	0.0744268
1744.05	0.0786734
1745.23	0.0777038
1746.42	0.0740508
1747.6	0.0739058
1748.79	0.0712545
1749.97	0.0627249
1751.16	0.0620059
1752.34	0.0552216
1753.53	0.0477105
1754.71	0.0384761
1755.9	0.0359772
1757.08	0.0378659
1758.27	0.0341249
1759.45	0.0242925
1760.64	0.0250801
1761.82	0.0283179
1763.01	0.0275101
1764.19	0.0290885
1765.38	0.0361576
1766.56	0.0408714
1767.74	0.0432196
1768.93	0.0460479
1770.12	0.0396699
1771.3	0.0393517
1772.49	0.0435793
1773.67	0.0405861
1774.85	0.0448227
1776.04	0.0485761
1777.23	0.0405384
1778.41	0.0331181
1779.6	0.0303245
1780.78	0.0297937
1781.97	0.0264191
1783.15	0.0164864
1784.34	0.00932618
1785.52	0.0144446
1786.7	0.0173384
1787.89	0.0127582
1789.08	0.0125267
1790.26	0.0102409
1791.45	0.00117524
1792.63	0.00274116
1793.81	0.00564642
1795	0.00475093
