405	0.00711147
406.185	0.0320917
407.37	0.0585253
408.555	0.0860543
409.74	0.112363
410.925	0.137928
412.11	0.16109
413.295	0.177526
414.48	0.194385
415.665	0.201393
416.85	0.192457
418.035	0.199776
419.22	0.213625
420.405	0.215174
421.59	0.202102
422.775	0.192265
423.96	0.197953
425.145	0.179836
426.33	0.175722
427.515	0.1586
428.7	0.140427
429.885	0.12242
431.07	0.101835
432.255	0.0817719
433.44	0.0686709
434.625	0.0497711
435.81	0.0416331
436.995	0.0450377
438.18	0.035988
439.365	0.0247037
440.55	0.0168922
441.735	0.0139367
442.92	0.0203709
444.105	0.0106134
445.29	0.0142655
446.475	0.00750684
447.66	-0.00256274
448.845	-0.00313386
450.03	-0.00264297
451.215	-0.00485774
452.4	-0.00141899
453.585	0.00527265
454.77	0.0158693
455.955	0.0244503
457.14	0.0319468
458.325	0.0412605
459.51	0.0490663
460.695	0.0622884
461.88	0.0809949
463.065	0.0933675
464.25	0.115127
465.435	0.138174
466.62	0.176928
467.805	0.216195
468.99	0.252907
470.175	0.296272
471.36	0.342214
472.545	0.382272
473.73	0.42345
474.915	0.466172
476.1	0.505819
477.285	0.545
478.47	0.589796
479.655	0.642594
480.84	0.688195
482.025	0.722726
483.21	0.756284
484.395	0.789997
485.58	0.812378
486.765	0.807217
487.95	0.821348
489.135	0.824097
490.32	0.825889
491.505	0.822704
492.69	0.812424
493.875	0.798783
495.06	0.778848
496.245	0.757423
497.43	0.728043
498.615	0.706919
499.8	0.667085
500.985	0.63209
502.17	0.600199
503.355	0.567776
504.54	0.535457
505.725	0.498541
506.91	0.464074
508.095	0.423245
509.28	0.402318
510.465	0.36896
511.65	0.345661
512.835	0.323917
514.02	0.299874
515.205	0.281135
516.39	0.270284
517.575	0.257132
518.76	0.222685
519.945	0.221128
521.13	0.212942
522.315	0.207787
523.5	0.202683
524.685	0.200797
525.87	0.203799
527.055	0.207002
528.24	0.206068
529.425	0.197876
530.61	0.197873
531.795	0.195597
532.98	0.194843
534.164	0.195598
535.35	0.19769
536.535	0.202192
537.719	0.214309
538.905	0.230219
540.09	0.224195
541.274	0.229312
542.46	0.230205
543.644	0.235414
544.829	0.239334
546.015	0.243649
547.199	0.252124
548.385	0.261824
549.569	0.268289
550.754	0.272977
551.94	0.277284
553.124	0.279488
554.309	0.288556
555.495	0.283079
556.679	0.275635
557.864	0.273813
559.049	0.28034
560.234	0.283758
561.419	0.280715
562.604	0.281125
563.789	0.266983
564.974	0.275846
566.159	0.274653
567.344	0.276912
568.529	0.272177
569.714	0.268018
570.899	0.267258
572.084	0.266924
573.269	0.26364
574.454	0.258663
575.639	0.257356
576.824	0.253382
578.009	0.242146
579.194	0.230682
580.379	0.224243
581.564	0.215481
582.749	0.21493
583.934	0.208154
585.119	0.193325
586.304	0.184425
587.489	0.170716
588.674	0.170577
589.859	0.173726
591.044	0.163181
592.229	0.157969
593.414	0.151002
594.599	0.14117
595.784	0.138349
596.969	0.139032
598.154	0.136125
599.339	0.135961
600.524	0.14087
601.709	0.134288
602.894	0.120552
604.079	0.123288
605.264	0.127028
606.449	0.124736
607.634	0.115707
608.819	0.101883
610.004	0.091655
611.189	0.0881373
612.374	0.0844849
613.559	0.0846784
614.744	0.0876215
615.929	0.0840534
617.114	0.0788636
618.299	0.0805943
619.484	0.07493
620.669	0.0692346
621.854	0.0682728
623.039	0.0648529
624.224	0.0526914
625.409	0.0388561
626.594	0.0363474
627.779	0.0461051
628.964	0.0478794
630.149	0.0410638
631.334	0.0361758
632.519	0.0277662
633.704	0.0278199
634.889	0.0291643
636.074	0.0310301
637.259	0.0300548
638.444	0.0197365
639.629	0.0140285
640.814	0.0172537
641.999	0.020923
643.184	0.0154729
644.369	0.0176193
645.554	0.0247803
646.739	0.0299526
647.924	0.031041
649.109	0.0305728
650.294	0.0298598
651.479	0.0333188
652.664	0.0424992
653.849	0.0448587
655.034	0.0527389
656.219	0.0515401
657.404	0.0606169
658.589	0.0743915
659.774	0.0898306
660.959	0.0954621
662.144	0.111911
663.329	0.133459
664.514	0.147427
665.699	0.154702
666.884	0.162558
668.069	0.18054
669.254	0.205594
670.439	0.228505
671.624	0.234944
672.809	0.234779
673.994	0.236604
675.179	0.241681
676.364	0.243422
677.549	0.248815
678.734	0.250297
679.919	0.249342
681.104	0.252922
682.289	0.243243
683.474	0.237461
684.659	0.227835
685.844	0.220737
687.029	0.215703
688.214	0.202884
689.399	0.182993
690.584	0.170394
691.769	0.165604
692.954	0.154501
694.139	0.140419
695.324	0.133828
696.509	0.126725
697.694	0.111609
698.879	0.102548
700.064	0.0929893
701.249	0.0908303
702.434	0.0791429
703.619	0.0745942
704.804	0.0670424
705.989	0.0561957
707.174	0.0466172
708.359	0.0488107
709.544	0.0524088
710.729	0.0481173
711.914	0.0472564
713.099	0.0515103
714.284	0.0498606
715.469	0.0490041
716.654	0.0602556
717.839	0.0656729
719.024	0.0622222
720.209	0.0580586
721.394	0.0667907
722.579	0.0750771
723.764	0.0831185
724.949	0.0932851
726.134	0.101537
727.319	0.101038
728.504	0.0933987
729.689	0.091657
730.874	0.0930002
732.059	0.103735
733.244	0.103791
734.429	0.107111
735.614	0.0945301
736.799	0.0911271
737.984	0.0897452
739.169	0.0893235
740.354	0.0848927
741.539	0.0855449
742.724	0.0852255
743.909	0.0750703
745.094	0.0662069
746.279	0.0639391
747.464	0.068863
748.649	0.0808344
749.834	0.0907231
751.019	0.0847888
752.204	0.0856382
753.389	0.0772648
754.574	0.079143
755.759	0.0756905
756.944	0.0696401
758.129	0.0683505
759.314	0.0687688
760.499	0.0623596
761.684	0.0546543
762.869	0.0556547
764.054	0.0563454
765.239	0.0558182
766.424	0.0463691
767.609	0.0404525
768.794	0.0287342
769.979	0.0183785
771.164	0.0110677
772.349	0.0152766
773.534	0.020746
774.719	0.0160897
775.904	0.0127816
777.089	0.0117882
778.274	0.00950786
779.459	0.00609882
780.644	0.00399284
781.829	0.00642144
783.014	0.00835063
784.199	0.008158
785.384	0.00975892
786.569	0.00403042
787.754	-0.00521455
788.939	-0.00443137
790.124	0.000153191
791.309	0.00138108
792.494	-0.0104205
793.679	-0.00840246
794.864	-0.00358985
796.049	0.00114022
797.234	0.00170582
798.419	0.00135388
799.604	0.0063068
800.789	0.00939802
801.974	0.0117339
803.159	0.0165665
804.344	0.029799
805.529	0.0383455
806.714	0.0630173
807.899	0.0793315
809.084	0.0993756
810.269	0.118029
811.454	0.151799
812.639	0.176346
813.823	0.203096
815.009	0.22605
816.194	0.25699
817.378	0.291398
818.564	0.316691
819.748	0.332431
820.933	0.345354
822.119	0.360499
823.303	0.370067
824.488	0.381226
825.674	0.387448
826.858	0.398429
828.044	0.405753
829.228	0.409362
830.413	0.419037
831.599	0.431084
832.783	0.439131
833.968	0.449814
835.153	0.462183
836.338	0.482097
837.523	0.506617
838.708	0.541273
839.893	0.580626
841.078	0.620894
842.263	0.6643
843.448	0.707234
844.633	0.751283
845.818	0.787538
847.003	0.824211
848.188	0.86314
849.373	0.885382
850.558	0.910869
851.743	0.929792
852.928	0.945496
854.113	0.947252
855.298	0.948225
856.483	0.943202
857.668	0.931493
858.853	0.914666
860.038	0.885348
861.223	0.85963
862.408	0.834429
863.593	0.806907
864.778	0.779726
865.963	0.748731
867.148	0.715202
868.333	0.682051
869.518	0.649921
870.703	0.61288
871.888	0.574772
873.073	0.54252
874.258	0.499309
875.443	0.476739
876.628	0.440402
877.813	0.420695
878.998	0.406254
880.183	0.374536
881.368	0.351334
882.553	0.324028
883.738	0.302219
884.923	0.280081
886.108	0.266813
887.293	0.259112
888.478	0.253276
889.663	0.253229
890.848	0.253872
892.033	0.252492
893.218	0.24916
894.403	0.245332
895.588	0.255603
896.773	0.262631
897.958	0.279152
899.143	0.289268
900.328	0.29273
901.513	0.301238
902.698	0.308533
903.883	0.325628
905.068	0.331694
906.253	0.337029
907.438	0.345073
908.623	0.358951
909.808	0.373862
910.993	0.395511
912.178	0.412861
913.363	0.425109
914.548	0.436337
915.733	0.444513
916.918	0.454246
918.103	0.463165
919.288	0.476144
920.473	0.491461
921.658	0.49787
922.843	0.501797
924.028	0.506848
925.213	0.512221
926.398	0.516395
927.583	0.509522
928.768	0.499023
929.953	0.482501
931.138	0.47327
932.323	0.451072
933.508	0.422683
934.693	0.390988
935.878	0.376207
937.063	0.365944
938.248	0.342483
939.433	0.31493
940.618	0.29041
941.803	0.264148
942.988	0.237456
944.173	0.211305
945.358	0.186453
946.543	0.17206
947.728	0.15631
948.913	0.145646
950.098	0.139248
951.283	0.137365
952.468	0.141099
953.653	0.144098
954.838	0.140891
956.023	0.133255
957.208	0.134234
958.393	0.144438
959.578	0.150562
960.763	0.159238
961.948	0.167152
963.133	0.178578
964.318	0.192035
965.503	0.204233
966.688	0.218946
967.873	0.229317
969.058	0.247021
970.243	0.253298
971.428	0.258821
972.613	0.263833
973.798	0.270616
974.983	0.281347
976.168	0.277504
977.353	0.28769
978.538	0.293409
979.723	0.297524
980.908	0.295281
982.093	0.286698
983.278	0.278995
984.463	0.272178
985.648	0.263009
986.833	0.251286
988.018	0.240976
989.203	0.232298
990.388	0.224199
991.573	0.225418
992.758	0.227503
993.943	0.227073
995.128	0.224237
996.313	0.216704
997.498	0.208618
998.683	0.205136
999.868	0.209829
1001.05	0.214585
1002.24	0.216741
1003.42	0.219849
1004.61	0.216632
1005.79	0.217814
1006.98	0.220621
1008.16	0.218452
1009.35	0.219982
1010.53	0.21012
1011.72	0.208954
1012.9	0.216186
1014.09	0.219016
1015.27	0.218726
1016.46	0.226672
1017.64	0.229416
1018.83	0.236656
1020.01	0.253075
1021.2	0.263426
1022.38	0.280977
1023.57	0.302313
1024.75	0.322121
1025.94	0.348277
1027.12	0.359699
1028.31	0.380869
1029.49	0.400969
1030.68	0.413928
1031.86	0.438042
1033.05	0.472412
1034.23	0.503723
1035.42	0.53885
1036.6	0.568149
1037.79	0.595888
1038.97	0.613472
1040.16	0.642992
1041.34	0.668478
1042.53	0.694739
1043.71	0.722791
1044.9	0.753612
1046.08	0.780616
1047.27	0.801663
1048.45	0.821647
1049.64	0.833347
1050.82	0.839962
1052.01	0.843164
1053.19	0.838988
1054.38	0.838246
1055.56	0.834687
1056.75	0.838091
1057.93	0.839522
1059.12	0.828732
1060.3	0.81344
1061.49	0.798636
1062.67	0.782073
1063.86	0.761097
1065.04	0.742961
1066.23	0.726236
1067.41	0.713576
1068.6	0.703607
1069.78	0.686813
1070.97	0.671345
1072.15	0.655871
1073.34	0.639533
1074.52	0.622781
1075.71	0.597627
1076.89	0.58034
1078.08	0.568365
1079.26	0.550304
1080.45	0.532897
1081.63	0.524004
1082.82	0.519896
1084	0.515253
1085.19	0.508693
1086.37	0.499931
1087.56	0.496082
1088.74	0.494073
1089.93	0.49513
1091.11	0.489091
1092.3	0.485175
1093.48	0.493057
1094.67	0.483954
1095.85	0.476134
1097.04	0.473907
1098.22	0.468922
1099.41	0.468419
1100.59	0.467653
1101.78	0.467694
1102.96	0.459479
1104.15	0.449843
1105.33	0.447355
1106.52	0.446399
1107.7	0.439166
1108.89	0.433321
1110.07	0.426899
1111.26	0.414301
1112.44	0.415507
1113.63	0.41864
1114.81	0.413034
1116	0.415063
1117.18	0.404779
1118.37	0.390034
1119.55	0.374835
1120.74	0.362248
1121.92	0.347192
1123.11	0.327873
1124.29	0.311098
1125.48	0.287895
1126.66	0.263571
1127.85	0.241185
1129.03	0.220188
1130.22	0.197723
1131.4	0.172703
1132.59	0.156979
1133.77	0.13711
1134.96	0.120187
1136.14	0.100805
1137.33	0.0803984
1138.51	0.0682994
1139.7	0.051673
1140.88	0.0400587
1142.07	0.0213192
1143.25	0.0107314
1144.44	0.00654488
1145.62	0.00728586
1146.81	0.00793782
1147.99	0.0141388
1149.18	0.00909365
1150.36	0.00475796
1151.55	-0.000642718
1152.73	-0.00380179
1153.92	-0.00491686
1155.1	-0.000763842
1156.29	0.00294801
1157.47	0.00800778
1158.66	0.00198881
1159.84	0.00283811
1161.03	0.00567447
1162.21	0.0107547
1163.4	0.0106839
1164.58	0.00555813
1165.77	0.00358882
1166.95	0.00647463
1168.14	0.00837614
1169.32	0.0128797
1170.51	0.0126411
1171.69	0.00907353
1172.88	0.00297484
1174.06	-0.00417739
1175.25	-0.00596252
1176.43	-0.000121451
1177.62	0.00275478
1178.8	0.0055271
1179.99	0.000709178
1181.17	-0.00262754
1182.36	-0.00445083
1183.54	-0.00946675
1184.73	-0.00581675
1185.91	-0.00311996
1187.1	-0.0010115
1188.28	0.00248503
1189.47	0.00844958
1190.65	0.0139466
1191.84	0.020074
1193.02	0.0255421
1194.21	0.0299846
1195.39	0.0378718
1196.58	0.0445984
1197.76	0.0542506
1198.95	0.0574544
1200.13	0.0622501
1201.32	0.0721487
1202.5	0.0816081
1203.69	0.0841223
1204.87	0.0765722
1206.06	0.0842587
1207.24	0.0909491
1208.43	0.0911005
1209.61	0.100522
1210.8	0.101793
1211.98	0.110175
1213.17	0.113077
1214.35	0.110456
1215.54	0.117178
1216.72	0.121696
1217.91	0.129511
1219.09	0.126765
1220.28	0.118964
1221.46	0.123211
1222.65	0.138156
1223.83	0.136501
1225.02	0.136214
1226.2	0.148388
1227.39	0.14543
1228.57	0.151627
1229.76	0.150686
1230.94	0.155055
1232.13	0.16256
1233.31	0.168498
1234.5	0.174391
1235.68	0.17923
1236.87	0.183605
1238.05	0.194629
1239.24	0.207126
1240.42	0.213284
1241.61	0.218726
1242.79	0.228227
1243.98	0.239778
1245.16	0.248259
1246.35	0.255039
1247.53	0.265595
1248.72	0.271903
1249.9	0.27429
1251.09	0.281894
1252.27	0.290922
1253.46	0.303403
1254.64	0.303275
1255.83	0.294637
1257.01	0.29618
1258.2	0.306682
1259.38	0.307609
1260.57	0.303991
1261.75	0.300611
1262.94	0.310537
1264.12	0.317492
1265.31	0.314172
1266.49	0.314322
1267.68	0.321395
1268.86	0.321169
1270.05	0.321603
1271.23	0.317645
1272.42	0.330091
1273.6	0.334948
1274.79	0.331772
1275.97	0.336834
1277.16	0.344389
1278.34	0.349254
1279.53	0.34542
1280.71	0.335818
1281.9	0.332711
1283.08	0.32856
1284.27	0.322127
1285.45	0.316296
1286.64	0.311956
1287.82	0.308645
1289.01	0.305419
1290.19	0.30107
1291.38	0.298424
1292.56	0.290903
1293.75	0.285316
1294.93	0.274658
1296.12	0.269327
1297.3	0.271817
1298.49	0.266943
1299.67	0.262985
1300.86	0.264404
1302.04	0.269314
1303.23	0.264619
1304.41	0.265278
1305.6	0.260032
1306.78	0.253738
1307.97	0.248715
1309.15	0.250463
1310.34	0.249256
1311.52	0.252273
1312.71	0.256207
1313.89	0.251984
1315.08	0.251229
1316.26	0.24866
1317.45	0.243786
1318.63	0.235995
1319.82	0.234028
1321	0.236031
1322.19	0.231538
1323.37	0.232744
1324.56	0.236787
1325.74	0.236863
1326.93	0.234665
1328.11	0.226552
1329.3	0.220406
1330.48	0.212663
1331.67	0.208149
1332.85	0.19973
1334.04	0.201715
1335.22	0.207788
1336.41	0.2121
1337.59	0.191236
1338.78	0.189721
1339.96	0.190737
1341.15	0.18846
1342.33	0.184015
1343.52	0.178025
1344.7	0.179981
1345.89	0.180369
1347.07	0.183593
1348.26	0.186585
1349.44	0.189181
1350.63	0.186635
1351.81	0.178115
1353	0.16739
1354.18	0.172654
1355.37	0.179559
1356.55	0.177229
1357.74	0.175587
1358.92	0.1719
1360.11	0.179084
1361.29	0.167447
1362.48	0.166044
1363.66	0.155387
1364.85	0.156146
1366.03	0.152687
1367.22	0.150552
1368.4	0.156619
1369.59	0.16901
1370.77	0.173523
1371.96	0.168992
1373.14	0.169276
1374.33	0.169463
1375.51	0.17018
1376.7	0.166859
1377.88	0.168164
1379.07	0.16914
1380.25	0.176343
1381.44	0.178815
1382.62	0.175403
1383.81	0.177366
1384.99	0.168465
1386.18	0.156305
1387.36	0.14786
1388.55	0.148503
1389.73	0.148099
1390.92	0.153773
1392.1	0.153346
1393.29	0.151268
1394.47	0.150453
1395.66	0.150905
1396.84	0.147718
1398.03	0.138812
1399.21	0.13334
1400.4	0.132294
1401.58	0.142009
1402.77	0.155241
1403.95	0.151933
1405.14	0.154729
1406.32	0.15517
1407.51	0.151643
1408.69	0.153859
1409.88	0.165355
1411.06	0.165677
1412.25	0.173106
1413.43	0.174351
1414.62	0.179487
1415.8	0.185504
1416.99	0.189269
1418.17	0.188775
1419.36	0.184266
1420.54	0.182301
1421.73	0.180248
1422.91	0.182017
1424.1	0.182763
1425.28	0.181472
1426.47	0.168693
1427.65	0.167437
1428.84	0.157988
1430.02	0.155921
1431.21	0.154695
1432.39	0.154849
1433.58	0.158602
1434.76	0.160763
1435.95	0.157031
1437.13	0.164814
1438.32	0.179399
1439.5	0.182152
1440.69	0.185512
1441.87	0.196362
1443.06	0.210854
1444.24	0.238961
1445.43	0.261444
1446.61	0.280576
1447.8	0.310383
1448.98	0.331859
1450.17	0.354998
1451.35	0.379953
1452.54	0.407575
1453.72	0.433805
1454.91	0.453118
1456.09	0.476505
1457.28	0.507362
1458.46	0.524567
1459.65	0.54425
1460.83	0.550132
1462.02	0.564638
1463.2	0.576985
1464.39	0.580162
1465.57	0.588317
1466.76	0.593865
1467.94	0.593076
1469.13	0.593291
1470.31	0.581629
1471.5	0.569678
1472.68	0.552416
1473.87	0.525508
1475.05	0.504759
1476.24	0.478446
1477.42	0.445895
1478.61	0.418132
1479.79	0.385111
1480.98	0.348366
1482.16	0.315055
1483.35	0.279188
1484.53	0.251009
1485.72	0.223765
1486.9	0.19668
1488.09	0.166442
1489.27	0.147842
1490.46	0.120584
1491.64	0.0998842
1492.83	0.0846132
1494.01	0.0755084
1495.2	0.0618511
1496.38	0.0477439
1497.57	0.041466
1498.75	0.0320552
1499.94	0.0220301
1501.12	0.0108296
1502.31	0.00018477
1503.49	-0.00646575
1504.68	-0.00549595
1505.86	-0.00820553
1507.05	-0.00396119
1508.23	-0.000273885
1509.42	-0.002477
1510.6	-0.00566465
1511.79	0.000289416
1512.97	0.00768823
1514.16	0.00910917
1515.34	0.0104874
1516.53	0.0123694
1517.71	0.0115736
1518.9	0.0171815
1520.08	0.029496
1521.27	0.0265164
1522.45	0.0287514
1523.64	0.033926
1524.82	0.0312003
1526.01	0.0280956
1527.19	0.0229743
1528.38	0.0108932
1529.56	0.00436514
1530.75	0.00324364
1531.93	0.00763357
1533.12	0.00857487
1534.3	0.00790524
1535.49	0.00387729
1536.67	-0.00273578
1537.86	-0.00159167
1539.04	-0.00419055
1540.23	-0.00558881
1541.41	-0.00421741
1542.6	-0.000790308
1543.78	0.00167028
1544.97	0.00431485
1546.15	0.00840135
1547.34	0.0123519
1548.52	0.0143979
1549.71	0.015483
1550.89	0.0202307
1552.08	0.0174054
1553.26	0.0185655
1554.45	0.0176813
1555.63	0.0170134
1556.82	0.0160612
1558	0.0131913
1559.19	0.0133714
1560.37	0.0151403
1561.56	0.0225522
1562.74	0.0239883
1563.93	0.0232538
1565.11	0.0156453
1566.3	0.0178714
1567.48	0.016421
1568.67	0.0177291
1569.85	0.0196577
1571.04	0.0208964
1572.22	0.0205108
1573.41	0.0207273
1574.59	0.0213241
1575.78	0.0237907
1576.96	0.022732
1578.15	0.018509
1579.33	0.0125297
1580.52	0.0100292
1581.7	0.0110611
1582.89	0.0107212
1584.07	0.00798157
1585.26	0.00490298
1586.44	-0.000638209
1587.63	-0.00255427
1588.81	-0.00239104
1590	-0.00404364
1591.18	-0.00352393
1592.37	-0.0067195
1593.55	-0.00811247
1594.74	-0.00861662
1595.92	-0.00673464
1597.11	-0.00316648
1598.29	-0.00230604
1599.48	-0.00119315
1600.66	0.00573046
1601.85	0.00697927
1603.03	0.00512931
1604.22	0.00610087
1605.4	0.00768445
1606.59	0.0104912
1607.77	0.0113379
1608.96	0.0124518
1610.14	0.0129391
1611.33	0.0142622
1612.51	0.01345
1613.7	0.00768089
1614.88	0.00357719
1616.07	0.00521301
1617.25	0.000723435
1618.44	-0.000477313
1619.62	0.000854314
1620.81	0.00254438
1621.99	0.00228268
1623.18	0.00677091
1624.36	0.0091768
1625.55	0.0103305
1626.73	0.00867641
1627.92	0.00627108
1629.1	0.0080004
1630.29	0.0107407
1631.47	0.00560434
1632.66	0.000470656
1633.84	0.000824147
1635.03	0.00212341
1636.21	-0.00269915
1637.4	0.00111516
1638.58	-0.00379238
1639.77	-0.00886377
1640.95	-0.0103502
1642.14	-0.00559067
1643.32	0.00116527
1644.51	0.00624148
1645.69	0.00817257
1646.88	0.0106359
1648.06	0.0137475
1649.25	0.0171542
1650.43	0.0249135
1651.62	0.0272541
1652.8	0.0258725
1653.99	0.0223039
1655.17	0.025371
1656.36	0.0321682
1657.54	0.0364964
1658.73	0.0384639
1659.91	0.0401173
1661.1	0.0405095
1662.28	0.0459161
1663.47	0.0496834
1664.65	0.0489205
1665.84	0.0520634
1667.02	0.0508603
1668.21	0.0504892
1669.39	0.0555516
1670.58	0.0590646
1671.76	0.0601899
1672.95	0.0562014
1674.13	0.0585035
1675.32	0.0530169
1676.5	0.0501662
1677.69	0.0482466
1678.87	0.0475653
1680.06	0.0448231
1681.24	0.0459682
1682.43	0.0434435
1683.61	0.0431569
1684.8	0.0416197
1685.98	0.0406771
1687.17	0.0445726
1688.35	0.0467975
1689.54	0.0417778
1690.72	0.0370409
1691.91	0.0346415
1693.09	0.0331942
1694.28	0.0293033
1695.46	0.0304104
1696.65	0.0390456
1697.83	0.0351867
1699.02	0.0424999
1700.2	0.0470698
1701.39	0.0437326
1702.57	0.0390456
1703.76	0.0315043
1704.94	0.032222
1706.13	0.0338125
1707.31	0.0341989
1708.5	0.0339432
1709.68	0.0388281
1710.87	0.0419173
1712.05	0.0416467
1713.24	0.040535
1714.42	0.0346222
1715.61	0.028974
1716.79	0.0330689
1717.98	0.0362702
1719.16	0.0345892
1720.35	0.0394163
1721.53	0.0392413
1722.72	0.0394602
1723.9	0.0420797
1725.09	0.0392964
1726.27	0.0372905
1727.46	0.0381503
1728.64	0.0412449
1729.83	0.0340866
1731.01	0.0330178
1732.2	0.0313386
1733.38	0.024798
1734.57	0.0201012
1735.75	0.0149819
1736.94	0.0147932
1738.12	0.014208
1739.31	0.013967
1740.49	0.0129329
1741.68	0.012667
1742.86	0.0042857
1744.05	-0.00401853
1745.23	-0.00315725
1746.42	0.00200945
1747.6	0.00573418
1748.79	0.00113515
1749.97	0.0102928
1751.16	0.0103918
1752.34	0.0113661
1753.53	0.00670689
1754.71	0.00669476
1755.9	0.00444162
1757.08	0.00190539
1758.27	0.00603138
1759.45	0.0124759
1760.64	0.0118165
1761.82	0.00676964
1763.01	0.00323949
1764.19	-0.00061646
1765.38	-0.00173869
1766.56	-0.00364581
1767.74	-0.00506942
1768.93	-0.00217386
1770.12	-0.00230786
1771.3	-0.00263785
1772.49	-0.0050689
1773.67	-0.00519585
1774.85	-0.00692281
1776.04	-0.0105657
1777.23	-0.0066576
1778.41	-0.00431538
1779.6	-0.00441427
1780.78	-0.00482278
1781.97	-0.00375296
1783.15	-0.00158968
1784.34	-0.0032596
1785.52	-0.00276322
1786.7	-0.00485286
1787.89	-0.00141606
1789.08	-0.000196142
1790.26	-0.00348003
1791.45	-0.00506553
1792.63	-0.00640532
1793.81	-0.00919274
1795	-0.0101509
