405	0.00985654
406.185	0.0307597
407.37	0.0498913
408.555	0.0675027
409.74	0.0842926
410.925	0.0975594
412.11	0.110313
413.295	0.129269
414.48	0.145605
415.665	0.134824
416.85	0.137755
418.035	0.141737
419.22	0.141643
420.405	0.135711
421.59	0.130963
422.775	0.125075
423.96	0.119306
425.145	0.114596
426.33	0.109956
427.515	0.106215
428.7	0.0994084
429.885	0.0812199
431.07	0.0680795
432.255	0.0544735
433.44	0.0412187
434.625	0.0421458
435.81	0.0481716
436.995	0.0512172
438.18	0.051855
439.365	0.0537764
440.55	0.0599345
441.735	0.0543272
442.92	0.0529743
444.105	0.0578019
445.29	0.06479
446.475	0.0655176
447.66	0.0658903
448.845	0.0741019
450.03	0.0914089
451.215	0.112134
452.4	0.128808
453.585	0.136471
454.77	0.135877
455.955	0.137957
457.14	0.148757
458.325	0.17552
459.51	0.190388
460.695	0.208452
461.88	0.234018
463.065	0.262299
464.25	0.286117
465.435	0.304061
466.62	0.331967
467.805	0.352704
468.99	0.38263
470.175	0.398279
471.36	0.418362
472.545	0.443281
473.73	0.477469
474.915	0.50868
476.1	0.533877
477.285	0.554407
478.47	0.569752
479.655	0.591744
480.84	0.614009
482.025	0.629539
483.21	0.628118
484.395	0.635496
485.58	0.639057
486.765	0.65019
487.95	0.65046
489.135	0.648255
490.32	0.65203
491.505	0.650203
492.69	0.642706
493.875	0.639213
495.06	0.631724
496.245	0.603981
497.43	0.582839
498.615	0.562644
499.8	0.539771
500.985	0.521333
502.17	0.506393
503.355	0.491432
504.54	0.477391
505.725	0.461471
506.91	0.437394
508.095	0.425841
509.28	0.406041
510.465	0.384603
511.65	0.368067
512.835	0.349044
514.02	0.333692
515.205	0.322164
516.39	0.310528
517.575	0.302684
518.76	0.297975
519.945	0.291471
521.13	0.290666
522.315	0.283305
523.5	0.279806
524.685	0.278678
525.87	0.270022
527.055	0.267666
528.24	0.264639
529.424	0.262534
530.61	0.260743
531.795	0.25787
532.98	0.258162
534.165	0.266848
535.35	0.279787
536.535	0.286322
537.72	0.274895
538.905	0.272499
540.09	0.269969
541.275	0.275999
542.46	0.274458
543.645	0.274177
544.83	0.278684
546.014	0.28296
547.199	0.290116
548.384	0.298673
549.569	0.298756
550.754	0.303234
551.939	0.304832
553.124	0.299241
554.309	0.292265
555.494	0.290562
556.679	0.300214
557.864	0.311794
559.049	0.317555
560.234	0.321603
561.419	0.324166
562.604	0.322157
563.789	0.320103
564.974	0.323258
566.159	0.322428
567.344	0.318566
568.529	0.323479
569.714	0.324217
570.899	0.333203
572.084	0.336682
573.269	0.334126
574.454	0.338954
575.639	0.33826
576.824	0.333016
578.009	0.326955
579.194	0.316022
580.379	0.308553
581.564	0.310789
582.749	0.303758
583.934	0.29338
585.119	0.293089
586.304	0.28984
587.489	0.283278
588.674	0.276608
589.859	0.260292
591.044	0.24322
592.229	0.234908
593.414	0.223214
594.599	0.207083
595.784	0.199573
596.969	0.188792
598.154	0.177128
599.339	0.176614
600.524	0.164284
601.709	0.164847
602.894	0.168877
604.079	0.163439
605.264	0.152877
606.449	0.141593
607.634	0.133163
608.819	0.128472
610.004	0.125872
611.189	0.127195
612.374	0.130704
613.559	0.128879
614.744	0.13644
615.929	0.141246
617.114	0.145299
618.299	0.138275
619.484	0.126879
620.669	0.121243
621.854	0.115207
623.039	0.112867
624.224	0.113005
625.409	0.112141
626.594	0.11224
627.779	0.110544
628.964	0.105212
630.149	0.101619
631.334	0.0906203
632.519	0.0813048
633.704	0.0591478
634.889	0.0400236
636.074	0.0295877
637.259	0.0260679
638.444	0.0404462
639.629	0.0335627
640.814	0.0226301
641.999	0.0145623
643.184	0.00421241
644.369	-0.00141326
645.554	-0.00307476
646.739	-0.00747673
647.924	-0.00521487
649.109	-0.00506911
650.294	-0.00221769
651.479	0.0121417
652.664	0.0219399
653.849	0.0195607
655.034	0.0280172
656.219	0.0354436
657.404	0.0374746
658.589	0.0436563
659.774	0.0497271
660.959	0.0576699
662.144	0.071638
663.329	0.0801283
664.514	0.0807434
665.699	0.0907075
666.884	0.104184
668.069	0.112894
669.254	0.114584
670.439	0.119488
671.624	0.124489
672.809	0.143647
673.994	0.141603
675.179	0.137005
676.364	0.136241
677.549	0.13762
678.734	0.134749
679.919	0.126501
681.104	0.121764
682.289	0.127037
683.474	0.132645
684.659	0.125456
685.844	0.11302
687.029	0.108231
688.214	0.100571
689.399	0.0847387
690.584	0.0785326
691.769	0.0691607
692.954	0.0653723
694.139	0.0660246
695.324	0.0582439
696.509	0.0578149
697.694	0.0643232
698.879	0.0685626
700.064	0.0673911
701.249	0.0617763
702.434	0.0549991
703.619	0.0510742
704.804	0.0504662
705.989	0.05261
707.174	0.0570371
708.359	0.0640016
709.544	0.0666438
710.729	0.0670401
711.914	0.0720856
713.099	0.0755682
714.284	0.0781292
715.469	0.075225
716.654	0.0741103
717.839	0.0720391
719.024	0.0670322
720.209	0.0603979
721.394	0.0631069
722.579	0.0710756
723.764	0.0703763
724.949	0.0647622
726.134	0.0619965
727.319	0.0634653
728.504	0.0614573
729.689	0.0690194
730.874	0.0716715
732.059	0.0627053
733.244	0.0700423
734.429	0.0708747
735.614	0.0727642
736.799	0.0770223
737.984	0.0838278
739.169	0.0823157
740.354	0.0825713
741.539	0.0795538
742.724	0.07863
743.909	0.0804318
745.094	0.0777186
746.279	0.0789262
747.464	0.0830447
748.649	0.0759272
749.834	0.0772399
751.019	0.0842386
752.204	0.0780225
753.389	0.0766194
754.574	0.0760593
755.759	0.0790636
756.944	0.0646199
758.129	0.0680158
759.314	0.0549333
760.499	0.0552775
761.684	0.0504927
762.869	0.0501047
764.054	0.0549897
765.239	0.0515385
766.424	0.0465505
767.609	0.0440958
768.794	0.0358609
769.979	0.0280278
771.164	0.0264292
772.349	0.0254123
773.534	0.025927
774.719	0.0200243
775.904	0.0294777
777.089	0.0327453
778.274	0.0306175
779.459	0.0307297
780.644	0.0317919
781.829	0.0190251
783.014	0.00730761
784.199	-0.000733968
785.384	-0.0055327
786.569	-0.00565779
787.754	0.000124539
788.939	0.00263966
790.124	0.00542978
791.309	0.00896165
792.494	0.0117588
793.679	0.0147085
794.864	0.0181927
796.049	0.0275392
797.234	0.03159
798.419	0.0390501
799.604	0.0532051
800.789	0.0745382
801.974	0.0853674
803.159	0.105131
804.344	0.117477
805.529	0.125922
806.714	0.119885
807.898	0.131187
809.083	0.138956
810.268	0.136018
811.454	0.130719
812.639	0.137847
813.824	0.143979
815.009	0.155093
816.194	0.171614
817.379	0.182637
818.564	0.191226
819.749	0.201126
820.934	0.209144
822.119	0.219132
823.304	0.229187
824.489	0.23862
825.673	0.261026
826.858	0.271455
828.043	0.291137
829.228	0.311516
830.413	0.33785
831.598	0.354609
832.783	0.366385
833.968	0.386716
835.153	0.40022
836.338	0.411088
837.523	0.420529
838.708	0.436462
839.893	0.442342
841.078	0.448221
842.263	0.460547
843.448	0.464413
844.633	0.462528
845.818	0.461724
847.003	0.465157
848.188	0.470506
849.373	0.471758
850.558	0.467114
851.743	0.459937
852.928	0.458418
854.113	0.456441
855.298	0.452189
856.483	0.449197
857.668	0.441826
858.853	0.442106
860.038	0.444347
861.223	0.438889
862.408	0.445086
863.593	0.450021
864.778	0.446771
865.963	0.448054
867.148	0.438376
868.333	0.434158
869.518	0.444547
870.703	0.442643
871.888	0.439447
873.073	0.448876
874.258	0.45546
875.443	0.464761
876.628	0.480731
877.813	0.486267
878.998	0.487087
880.183	0.491691
881.368	0.499285
882.553	0.51002
883.738	0.51608
884.923	0.521338
886.108	0.531026
887.293	0.535192
888.478	0.539444
889.663	0.551154
890.848	0.549232
892.033	0.543448
893.218	0.549981
894.403	0.552555
895.588	0.548962
896.773	0.560175
897.958	0.574864
899.143	0.580282
900.328	0.588803
901.513	0.59694
902.698	0.609115
903.883	0.620391
905.068	0.631902
906.253	0.644548
907.438	0.64669
908.623	0.660787
909.808	0.681115
910.993	0.691673
912.178	0.698126
913.363	0.707105
914.548	0.705678
915.733	0.70204
916.918	0.703323
918.103	0.697406
919.288	0.689001
920.473	0.684009
921.658	0.675641
922.843	0.667066
924.028	0.65838
925.213	0.650238
926.398	0.645831
927.583	0.637172
928.768	0.631016
929.953	0.626269
931.138	0.625117
932.323	0.620754
933.508	0.626824
934.693	0.626482
935.878	0.628255
937.063	0.625216
938.248	0.626155
939.433	0.625467
940.618	0.624305
941.803	0.628869
942.988	0.638241
944.173	0.640823
945.358	0.646212
946.543	0.642283
947.728	0.64588
948.913	0.636491
950.098	0.631268
951.283	0.635761
952.468	0.633261
953.653	0.627171
954.838	0.630832
956.023	0.626988
957.208	0.62649
958.393	0.63264
959.578	0.63597
960.763	0.634675
961.948	0.637395
963.133	0.635854
964.318	0.635557
965.503	0.638221
966.688	0.641418
967.873	0.651158
969.058	0.65354
970.243	0.648661
971.428	0.647136
972.613	0.650648
973.798	0.659838
974.983	0.670225
976.168	0.671621
977.353	0.672821
978.538	0.674883
979.723	0.678447
980.908	0.676281
982.093	0.678827
983.278	0.675993
984.463	0.678266
985.648	0.676014
986.833	0.67862
988.018	0.685375
989.203	0.698159
990.388	0.703774
991.573	0.701372
992.758	0.697728
993.943	0.702653
995.128	0.713276
996.313	0.714348
997.498	0.712318
998.683	0.715715
999.868	0.721605
1001.05	0.725034
1002.24	0.736044
1003.42	0.749842
1004.61	0.760908
1005.79	0.764382
1006.98	0.771192
1008.16	0.778681
1009.35	0.79115
1010.53	0.799603
1011.72	0.805458
1012.9	0.807012
1014.09	0.809501
1015.27	0.815558
1016.46	0.829903
1017.64	0.840707
1018.83	0.853947
1020.01	0.867077
1021.2	0.870794
1022.38	0.876375
1023.57	0.887837
1024.75	0.894147
1025.94	0.899067
1027.12	0.900142
1028.31	0.907557
1029.49	0.915038
1030.68	0.920346
1031.86	0.933389
1033.05	0.942962
1034.23	0.941976
1035.42	0.942953
1036.6	0.948225
1037.79	0.947342
1038.97	0.943953
1040.16	0.939079
1041.34	0.9303
1042.53	0.925972
1043.71	0.925385
1044.9	0.925556
1046.08	0.925473
1047.27	0.927788
1048.45	0.929898
1049.64	0.927038
1050.82	0.925179
1052.01	0.924103
1053.19	0.920803
1054.38	0.912416
1055.56	0.901233
1056.75	0.893639
1057.93	0.889545
1059.12	0.88595
1060.3	0.874112
1061.49	0.870755
1062.67	0.869369
1063.86	0.861688
1065.04	0.852855
1066.23	0.843874
1067.41	0.837634
1068.6	0.825215
1069.78	0.813802
1070.97	0.804708
1072.15	0.79586
1073.34	0.788306
1074.52	0.782031
1075.71	0.778137
1076.89	0.768055
1078.08	0.766446
1079.26	0.758837
1080.45	0.745607
1081.63	0.741736
1082.82	0.730953
1084	0.726699
1085.19	0.725964
1086.37	0.719493
1087.56	0.722601
1088.74	0.720647
1089.93	0.721832
1091.11	0.717434
1092.3	0.718155
1093.48	0.718732
1094.67	0.7269
1095.85	0.733756
1097.04	0.736313
1098.22	0.750083
1099.41	0.759304
1100.59	0.760361
1101.78	0.757993
1102.96	0.748401
1104.15	0.743238
1105.33	0.73596
1106.52	0.735148
1107.7	0.731965
1108.89	0.731757
1110.07	0.724785
1111.26	0.720591
1112.44	0.707751
1113.63	0.699794
1114.81	0.689259
1116	0.662371
1117.18	0.650352
1118.37	0.641492
1119.55	0.637761
1120.74	0.629539
1121.92	0.624978
1123.11	0.623472
1124.29	0.615678
1125.48	0.609549
1126.66	0.608093
1127.85	0.611962
1129.03	0.60825
1130.22	0.60375
1131.4	0.600961
1132.59	0.606468
1133.77	0.607125
1134.96	0.60943
1136.14	0.613603
1137.33	0.610544
1138.51	0.616811
1139.7	0.626118
1140.88	0.632975
1142.07	0.634515
1143.25	0.636725
1144.44	0.641863
1145.62	0.638118
1146.81	0.636134
1147.99	0.644822
1149.18	0.647776
1150.36	0.638926
1151.55	0.64044
1152.73	0.637421
1153.92	0.626618
1155.1	0.623613
1156.29	0.612799
1157.47	0.5998
1158.66	0.592911
1159.84	0.591999
1161.03	0.586052
1162.21	0.575688
1163.4	0.568378
1164.58	0.564523
1165.77	0.560312
1166.95	0.554254
1168.14	0.552452
1169.32	0.556902
1170.51	0.553616
1171.69	0.556755
1172.88	0.554694
1174.06	0.558729
1175.25	0.554694
1176.43	0.547415
1177.62	0.540632
1178.8	0.537039
1179.99	0.534736
1181.17	0.528143
1182.36	0.519054
1183.54	0.510807
1184.73	0.509821
1185.91	0.50152
1187.1	0.484216
1188.28	0.476593
1189.47	0.47418
1190.65	0.467467
1191.84	0.458459
1193.02	0.457242
1194.21	0.455169
1195.39	0.441801
1196.58	0.421231
1197.76	0.406021
1198.95	0.392846
1200.13	0.378022
1201.32	0.35948
1202.5	0.339956
1203.69	0.327241
1204.87	0.311881
1206.06	0.28982
1207.24	0.271372
1208.43	0.257351
1209.61	0.2459
1210.8	0.222198
1211.98	0.197069
1213.17	0.183132
1214.35	0.173891
1215.54	0.161327
1216.72	0.15806
1217.91	0.144656
1219.09	0.131791
1220.28	0.120782
1221.46	0.106609
1222.65	0.1033
1223.83	0.0917711
1225.02	0.0730788
1226.2	0.0594826
1227.39	0.0436555
1228.57	0.031002
1229.76	0.0253245
1230.94	0.0163464
1232.13	0.00654611
1233.31	-0.00156033
1234.5	-0.0105657
1235.68	-0.00492109
1236.87	-0.00794692
1238.05	-0.00917128
1239.24	-0.00742481
1240.42	-0.00983823
1241.61	-0.000618895
1242.79	0.000645181
1243.98	0.00409898
1245.16	0.0174893
1246.35	0.032323
1247.53	0.0423588
1248.72	0.0553137
1249.9	0.0648477
1251.09	0.0739291
1252.27	0.0737229
1253.46	0.0734505
1254.64	0.0823536
1255.83	0.0867078
1257.01	0.0902018
1258.2	0.0904789
1259.38	0.0943044
1260.57	0.105485
1261.75	0.113542
1262.94	0.118852
1264.12	0.120267
1265.31	0.126948
1266.49	0.137227
1267.68	0.148903
1268.86	0.164203
1270.05	0.184169
1271.23	0.200587
1272.42	0.211956
1273.6	0.229147
1274.79	0.246468
1275.97	0.263024
1277.16	0.280272
1278.34	0.291727
1279.53	0.296974
1280.71	0.308421
1281.9	0.329219
1283.08	0.335767
1284.27	0.342086
1285.45	0.359854
1286.64	0.371134
1287.82	0.382529
1289.01	0.387341
1290.19	0.413488
1291.38	0.419755
1292.56	0.432098
1293.75	0.44064
1294.93	0.444909
1296.12	0.457815
1297.3	0.47253
1298.49	0.491694
1299.67	0.504068
1300.86	0.522985
1302.04	0.531889
1303.23	0.533831
1304.41	0.542116
1305.6	0.553274
1306.78	0.561626
1307.97	0.56561
1309.15	0.582145
1310.34	0.591841
1311.52	0.599258
1312.71	0.608805
1313.89	0.609515
1315.08	0.601905
1316.26	0.600425
1317.45	0.601669
1318.63	0.606351
1319.82	0.608568
1321	0.612324
1322.19	0.614893
1323.37	0.617525
1324.56	0.618365
1325.74	0.61053
1326.93	0.60508
1328.11	0.606402
1329.3	0.602152
1330.48	0.598669
1331.67	0.615632
1332.85	0.620313
1334.04	0.612433
1335.22	0.61373
1336.41	0.61916
1337.59	0.619672
1338.78	0.625562
1339.96	0.627506
1341.15	0.631016
1342.33	0.638397
1343.52	0.644835
1344.7	0.648575
1345.89	0.658486
1347.07	0.669793
1348.26	0.674872
1349.44	0.677222
1350.63	0.686072
1351.81	0.690727
1353	0.687024
1354.18	0.690284
1355.37	0.689001
1356.55	0.690045
1357.74	0.682089
1358.92	0.68268
1360.11	0.681927
1361.29	0.690228
1362.48	0.693377
1363.66	0.693327
1364.85	0.691237
1366.03	0.688664
1367.22	0.693698
1368.4	0.684785
1369.59	0.678752
1370.77	0.679946
1371.96	0.681027
1373.14	0.675862
1374.33	0.675335
1375.51	0.67749
1376.7	0.673002
1377.88	0.661599
1379.07	0.651851
1380.25	0.650198
1381.44	0.647878
1382.62	0.647782
1383.81	0.643701
1384.99	0.644615
1386.18	0.645988
1387.36	0.637906
1388.55	0.633074
1389.73	0.635975
1390.92	0.631954
1392.1	0.629668
1393.29	0.621381
1394.47	0.626694
1395.66	0.636848
1396.84	0.633629
1398.03	0.621675
1399.21	0.622573
1400.4	0.617646
1401.58	0.606833
1402.77	0.59786
1403.95	0.599486
1405.14	0.604244
1406.32	0.598294
1407.51	0.590143
1408.69	0.589208
1409.88	0.588539
1411.06	0.580139
1412.25	0.565797
1413.43	0.551003
1414.62	0.548624
1415.8	0.540891
1416.99	0.539627
1418.17	0.545551
1419.36	0.554804
1420.54	0.568394
1421.73	0.569023
1422.91	0.563237
1424.1	0.571714
1425.28	0.584383
1426.47	0.592637
1427.65	0.60372
1428.84	0.616637
1430.02	0.632807
1431.21	0.646832
1432.39	0.653076
1433.58	0.656258
1434.76	0.660155
1435.95	0.665533
1437.13	0.668489
1438.32	0.672494
1439.5	0.685007
1440.69	0.697101
1441.87	0.705678
1443.06	0.705902
1444.24	0.719095
1445.43	0.724885
1446.61	0.728396
1447.8	0.717824
1448.98	0.728101
1450.17	0.733347
1451.35	0.735703
1452.54	0.740002
1453.72	0.744348
1454.91	0.738524
1456.09	0.733028
1457.28	0.72578
1458.46	0.714517
1459.65	0.703103
1460.83	0.688356
1462.02	0.672273
1463.2	0.653161
1464.39	0.64867
1465.57	0.635469
1466.76	0.613151
1467.94	0.604034
1469.13	0.576967
1470.31	0.555629
1471.5	0.544292
1472.68	0.524832
1473.87	0.507768
1475.05	0.491258
1476.24	0.472762
1477.42	0.454213
1478.61	0.433183
1479.79	0.418787
1480.98	0.405443
1482.16	0.390022
1483.35	0.380081
1484.53	0.366962
1485.72	0.359402
1486.9	0.347647
1488.09	0.329556
1489.27	0.323948
1490.46	0.302983
1491.64	0.290617
1492.83	0.284025
1494.01	0.272915
1495.2	0.26897
1496.38	0.260462
1497.57	0.251508
1498.75	0.246671
1499.94	0.240557
1501.12	0.233793
1502.31	0.228102
1503.49	0.220592
1504.68	0.21386
1505.86	0.199397
1507.05	0.204022
1508.23	0.203614
1509.42	0.192143
1510.6	0.193427
1511.79	0.196063
1512.97	0.200642
1514.16	0.199324
1515.34	0.18791
1516.53	0.181651
1517.71	0.17607
1518.9	0.166313
1520.08	0.155905
1521.27	0.148789
1522.45	0.151765
1523.64	0.1481
1524.82	0.139166
1526.01	0.140441
1527.19	0.137056
1528.38	0.127284
1529.56	0.115259
1530.75	0.110022
1531.93	0.104528
1533.12	0.0964115
1534.3	0.0893706
1535.49	0.0920274
1536.67	0.092504
1537.86	0.0909347
1539.04	0.0868552
1540.23	0.0813594
1541.41	0.0796315
1542.6	0.0762361
1543.78	0.0725085
1544.97	0.0738275
1546.15	0.0736838
1547.34	0.0713601
1548.52	0.0751671
1549.71	0.0779596
1550.89	0.0792365
1552.08	0.0728616
1553.26	0.0699382
1554.45	0.0707134
1555.63	0.0666886
1556.82	0.0657874
1558	0.0626807
1559.19	0.0580897
1560.37	0.0574434
1561.56	0.0517718
1562.74	0.0496337
1563.93	0.0450186
1565.11	0.0393756
1566.3	0.0358725
1567.48	0.0333837
1568.67	0.0371112
1569.85	0.0423937
1571.04	0.0432227
1572.22	0.0442662
1573.41	0.0444282
1574.59	0.0456251
1575.78	0.0462386
1576.96	0.0412028
1578.15	0.0378872
1579.33	0.0357195
1580.52	0.0335933
1581.7	0.031091
1582.89	0.029694
1584.07	0.030812
1585.26	0.0231051
1586.44	0.01477
1587.63	0.0133522
1588.81	0.0115406
1590	0.00967664
1591.18	0.00665898
1592.37	0.00617689
1593.55	0.00576429
1594.74	0.00365446
1595.92	0.00263744
1597.11	0.00400495
1598.29	0.00718622
1599.48	0.0131107
1600.66	0.0136044
1601.85	0.0218897
1603.03	0.023187
1604.22	0.0215671
1605.4	0.0256995
1606.59	0.0300744
1607.77	0.0316888
1608.96	0.0325636
1610.14	0.0285606
1611.33	0.0270955
1612.51	0.0240195
1613.7	0.0283142
1614.88	0.0262403
1616.07	0.0200433
1617.25	0.0218096
1618.44	0.0202163
1619.62	0.0217126
1620.81	0.0205261
1621.99	0.017873
1623.18	0.0196512
1624.36	0.0195965
1625.55	0.0162708
1626.73	0.0209019
1627.92	0.0197058
1629.1	0.0277172
1630.29	0.025018
1631.47	0.0323214
1632.66	0.0345611
1633.84	0.0313678
1635.03	0.0311823
1636.21	0.0261243
1637.4	0.0284885
1638.58	0.0258298
1639.77	0.0201036
1640.95	0.0225026
1642.14	0.0224597
1643.32	0.0269492
1644.51	0.0304326
1645.69	0.0335933
1646.88	0.0364418
1648.06	0.0381067
1649.25	0.0358495
1650.43	0.0358581
1651.62	0.0369337
1652.8	0.041556
1653.99	0.0415899
1655.17	0.0416361
1656.36	0.0410121
1657.54	0.0446762
1658.73	0.0513534
1659.91	0.0469048
1661.1	0.0422884
1662.28	0.0378333
1663.47	0.0301494
1664.65	0.027349
1665.84	0.028097
1667.02	0.0251493
1668.21	0.0202879
1669.39	0.0179897
1670.58	0.0126818
1671.76	0.00688632
1672.95	0.00293551
1674.13	-0.00223133
1675.32	-0.00372324
1676.5	0.000460484
1677.69	-0.00067679
1678.87	-0.000575882
1680.06	0.00207748
1681.24	0.00264966
1682.43	-0.000141612
1683.61	0.00196745
1684.8	0.000434662
1685.98	-0.00220893
1687.17	-0.00131125
1688.35	0.00216816
1689.54	0.0103615
1690.72	0.0119522
1691.91	0.00969476
1693.09	0.0085958
1694.28	0.0126898
1695.46	0.00731068
1696.65	0.00633156
1697.83	0.00358578
1699.02	0.00417544
1700.2	0.00295858
1701.39	0.00509273
1702.57	0.0135789
1703.76	0.0179725
1704.94	0.0181542
1706.13	0.0152391
1707.31	0.0162541
1708.5	0.0122434
1709.68	0.0129733
1710.87	0.0147141
1712.05	0.0219504
1713.24	0.0209808
1714.42	0.0243481
1715.61	0.0245893
1716.79	0.0253367
1717.98	0.021895
1719.16	0.0175905
1720.35	0.0145684
1721.53	0.0117039
1722.72	0.00938942
1723.9	0.0112249
1725.09	0.0139595
1726.27	0.0099265
1727.46	0.00124215
1728.64	0.00194094
1729.83	0.00113715
1731.01	0.00380419
1732.2	0.00531058
1733.38	0.00878915
1734.57	0.016267
1735.75	0.0232131
1736.94	0.0343859
1738.12	0.0460405
1739.31	0.0531679
1740.49	0.0519286
1741.68	0.0562622
1742.86	0.062962
1744.05	0.0681335
1745.23	0.0692702
1746.42	0.0748513
1747.6	0.0793753
1748.79	0.0859502
1749.97	0.0876997
1751.16	0.0865187
1752.34	0.0839811
1753.53	0.0823021
1754.71	0.0797793
1755.9	0.0789818
1757.08	0.0841891
1758.27	0.0851038
1759.45	0.0817106
1760.64	0.0834385
1761.82	0.0850415
1763.01	0.0871979
1764.19	0.0867377
1765.38	0.086601
1766.56	0.0890438
1767.75	0.0931293
1768.93	0.0944772
1770.12	0.0976686
1771.3	0.0999811
1772.49	0.103792
1773.67	0.103469
1774.86	0.111809
1776.04	0.121448
1777.23	0.127072
1778.41	0.132849
1779.6	0.130344
1780.78	0.133649
1781.97	0.138413
1783.15	0.145247
1784.34	0.151406
1785.52	0.155561
1786.71	0.158438
1787.89	0.163926
1789.08	0.167746
1790.26	0.1736
1791.45	0.172642
1792.63	0.174391
1793.82	0.178181
1795	0.182355
