405	-0.0105657
406.185	0.0286244
407.37	0.054447
408.555	0.0834178
409.74	0.110233
410.925	0.133467
412.11	0.15066
413.295	0.161652
414.48	0.169576
415.665	0.173908
416.85	0.183234
418.035	0.17635
419.22	0.187863
420.405	0.1778
421.59	0.170819
422.775	0.162702
423.96	0.150399
425.145	0.141841
426.33	0.136596
427.515	0.120629
428.7	0.104264
429.885	0.0955601
431.07	0.0850408
432.255	0.0747553
433.44	0.0606138
434.625	0.0573775
435.81	0.0539647
436.995	0.0470971
438.18	0.040424
439.365	0.0325221
440.55	0.0268284
441.735	0.020669
442.92	0.0240997
444.105	0.0255756
445.29	0.0277894
446.475	0.0275869
447.66	0.0211064
448.845	0.0155387
450.03	0.0206377
451.215	0.0337082
452.4	0.0460467
453.585	0.062628
454.77	0.0688883
455.955	0.0800982
457.14	0.0987923
458.325	0.123598
459.51	0.143441
460.695	0.163593
461.88	0.19029
463.065	0.22236
464.25	0.251369
465.435	0.279687
466.62	0.332196
467.805	0.388104
468.99	0.43817
470.175	0.462818
471.36	0.503073
472.545	0.545946
473.73	0.576554
474.915	0.61783
476.1	0.673633
477.285	0.725688
478.47	0.77173
479.655	0.823282
480.84	0.867012
482.025	0.90744
483.21	0.923352
484.395	0.948225
485.58	0.94133
486.765	0.932855
487.95	0.932153
489.135	0.9311
490.32	0.926103
491.505	0.912558
492.69	0.886934
493.875	0.876441
495.06	0.841442
496.245	0.814789
497.43	0.77152
498.615	0.731804
499.8	0.693184
500.985	0.649689
502.17	0.612084
503.355	0.581473
504.54	0.555813
505.725	0.5344
506.91	0.503547
508.095	0.470846
509.28	0.442634
510.465	0.427329
511.65	0.424076
512.835	0.403568
514.02	0.380468
515.205	0.354938
516.39	0.338035
517.575	0.325112
518.76	0.312772
519.945	0.30957
521.13	0.303872
522.315	0.297448
523.5	0.286816
524.685	0.292851
525.87	0.283179
527.055	0.272623
528.24	0.280158
529.424	0.280473
530.61	0.275717
531.795	0.286149
532.98	0.314181
534.165	0.339467
535.35	0.346436
536.535	0.348055
537.72	0.365459
538.905	0.370115
540.09	0.374268
541.275	0.386437
542.46	0.402734
543.645	0.399346
544.83	0.40085
546.014	0.411409
547.199	0.416942
548.384	0.418879
549.569	0.423309
550.754	0.419996
551.939	0.412531
553.124	0.391995
554.309	0.391178
555.494	0.391206
556.679	0.390406
557.864	0.38792
559.049	0.375072
560.234	0.361611
561.419	0.350683
562.604	0.344269
563.789	0.346249
564.974	0.346117
566.159	0.335273
567.344	0.332529
568.529	0.31992
569.714	0.321423
570.899	0.309118
572.084	0.309625
573.269	0.302238
574.454	0.297797
575.639	0.289625
576.824	0.279888
578.009	0.275766
579.194	0.276287
580.379	0.27633
581.564	0.268275
582.749	0.267486
583.934	0.260158
585.119	0.264447
586.304	0.256111
587.489	0.251069
588.674	0.245177
589.859	0.24637
591.044	0.244599
592.229	0.247056
593.414	0.250817
594.599	0.251642
595.784	0.256291
596.969	0.256729
598.154	0.253274
599.339	0.237414
600.524	0.237061
601.709	0.245399
602.894	0.237591
604.079	0.224573
605.264	0.21563
606.449	0.208636
607.634	0.204841
608.819	0.205746
610.004	0.205108
611.189	0.195857
612.374	0.181734
613.559	0.169322
614.744	0.153529
615.929	0.150021
617.114	0.164111
618.299	0.162443
619.484	0.154919
620.669	0.145062
621.854	0.141359
623.039	0.14173
624.224	0.147415
625.409	0.150187
626.594	0.14228
627.779	0.134207
628.964	0.131129
630.149	0.123591
631.334	0.127923
632.519	0.125278
633.704	0.123047
634.889	0.113495
636.074	0.0924144
637.259	0.0972677
638.444	0.102562
639.629	0.09964
640.814	0.0948455
641.999	0.102544
643.184	0.1167
644.369	0.124327
645.554	0.132408
646.739	0.137891
647.924	0.123966
649.109	0.127329
650.294	0.125972
651.479	0.139632
652.664	0.156689
653.849	0.172296
655.034	0.187006
656.219	0.190414
657.404	0.189506
658.589	0.194565
659.774	0.201643
660.959	0.209172
662.144	0.208722
663.329	0.208307
664.514	0.215857
665.699	0.22281
666.884	0.243782
668.069	0.257393
669.254	0.269685
670.439	0.268121
671.624	0.260218
672.809	0.253331
673.994	0.248608
675.179	0.243238
676.364	0.242095
677.549	0.240558
678.734	0.23677
679.919	0.225362
681.104	0.205232
682.289	0.182868
683.474	0.168423
684.659	0.1596
685.844	0.139617
687.029	0.126732
688.214	0.124943
689.399	0.114756
690.584	0.101334
691.769	0.0892566
692.954	0.0845682
694.139	0.0762721
695.324	0.0762093
696.509	0.0698494
697.694	0.0722862
698.879	0.0782435
700.064	0.0878109
701.249	0.0892537
702.434	0.0823105
703.619	0.083609
704.804	0.0812425
705.989	0.0705227
707.174	0.0620313
708.359	0.0631617
709.544	0.064218
710.729	0.0683181
711.914	0.0616109
713.099	0.0650284
714.284	0.0514166
715.469	0.0387704
716.654	0.0217699
717.839	0.00520096
719.024	0.00215693
720.209	0.0205312
721.394	0.0350764
722.579	0.0370024
723.764	0.046928
724.949	0.0620477
726.134	0.0670366
727.319	0.0718074
728.504	0.0917015
729.689	0.0950454
730.874	0.105438
732.059	0.102148
733.244	0.122731
734.429	0.136765
735.614	0.145926
736.799	0.150156
737.984	0.140065
739.169	0.124599
740.354	0.109624
741.539	0.100959
742.724	0.0865891
743.909	0.0702016
745.094	0.0668125
746.279	0.0630092
747.464	0.0512174
748.649	0.0508176
749.834	0.0455456
751.019	0.0468359
752.204	0.0406861
753.389	0.0374284
754.574	0.0318465
755.759	0.0331467
756.944	0.0357502
758.129	0.0366123
759.314	0.048316
760.499	0.044929
761.684	0.0495126
762.869	0.0485476
764.054	0.0414421
765.239	0.0373232
766.424	0.0337771
767.609	0.0298735
768.794	0.0291696
769.979	0.030902
771.164	0.0328324
772.349	0.0332331
773.534	0.0398657
774.719	0.052362
775.904	0.0624897
777.089	0.0615415
778.274	0.0455938
779.459	0.0437221
780.644	0.0469532
781.829	0.0491385
783.014	0.0476009
784.199	0.0425543
785.384	0.0406673
786.569	0.0372272
787.754	0.0289695
788.939	0.0215055
790.124	0.017658
791.309	0.0173555
792.494	0.0163682
793.679	0.0103492
794.864	0.00923276
796.049	0.0253976
797.234	0.0488569
798.419	0.068053
799.604	0.093333
800.789	0.122375
801.974	0.148169
803.159	0.180698
804.344	0.211454
805.529	0.236288
806.714	0.264639
807.898	0.29159
809.083	0.317824
810.268	0.34678
811.454	0.364613
812.639	0.37721
813.824	0.389504
815.009	0.387967
816.194	0.394933
817.379	0.400338
818.564	0.392547
819.749	0.392742
820.934	0.401538
822.119	0.407629
823.304	0.41486
824.489	0.437247
825.673	0.462227
826.858	0.476161
828.043	0.505037
829.228	0.529328
830.413	0.563981
831.598	0.606194
832.783	0.644218
833.968	0.70048
835.153	0.744672
836.338	0.787218
837.523	0.82621
838.708	0.854118
839.893	0.876844
841.078	0.903138
842.263	0.920453
843.448	0.922549
844.633	0.925084
845.818	0.923106
847.003	0.909393
848.188	0.897675
849.373	0.886281
850.558	0.867876
851.743	0.847493
852.928	0.812902
854.113	0.773295
855.298	0.740901
856.483	0.702659
857.668	0.673209
858.853	0.63787
860.038	0.603297
861.223	0.57474
862.408	0.547208
863.593	0.523212
864.778	0.499209
865.963	0.48304
867.148	0.447898
868.333	0.416355
869.518	0.382631
870.703	0.352264
871.888	0.329956
873.073	0.313702
874.258	0.305899
875.443	0.286951
876.628	0.269393
877.813	0.259204
878.998	0.242062
880.183	0.227318
881.368	0.218562
882.553	0.206935
883.738	0.198649
884.923	0.196483
886.108	0.204311
887.293	0.217879
888.478	0.230701
889.663	0.240836
890.848	0.250886
892.033	0.258195
893.218	0.274118
894.403	0.287028
895.588	0.302219
896.773	0.316418
897.958	0.332046
899.143	0.347767
900.328	0.369057
901.513	0.388799
902.698	0.404484
903.883	0.424872
905.068	0.433265
906.253	0.441205
907.438	0.462374
908.623	0.478881
909.808	0.49233
910.993	0.492208
912.178	0.501118
913.363	0.507259
914.548	0.500621
915.733	0.504714
916.918	0.510821
918.103	0.496743
919.288	0.478054
920.473	0.464796
921.658	0.443416
922.843	0.418947
924.028	0.397472
925.213	0.367136
926.398	0.335405
927.583	0.310186
928.768	0.284374
929.953	0.259866
931.138	0.236779
932.323	0.223377
933.508	0.206078
934.693	0.168543
935.878	0.144632
937.063	0.138785
938.248	0.124778
939.433	0.113882
940.618	0.107652
941.803	0.108988
942.988	0.107455
944.173	0.105541
945.358	0.106863
946.543	0.109763
947.728	0.113018
948.913	0.117681
950.098	0.117616
951.283	0.120325
952.468	0.137209
953.653	0.144165
954.838	0.154867
956.023	0.16113
957.208	0.168517
958.393	0.178076
959.578	0.182344
960.763	0.182999
961.948	0.186975
963.133	0.188398
964.318	0.189455
965.503	0.195603
966.688	0.202171
967.873	0.204845
969.058	0.205192
970.243	0.205962
971.428	0.203081
972.613	0.198455
973.798	0.190553
974.983	0.184032
976.168	0.184098
977.353	0.191736
978.538	0.193652
979.723	0.189424
980.908	0.192777
982.093	0.197318
983.278	0.199988
984.463	0.200538
985.648	0.205301
986.833	0.212164
988.018	0.212393
989.203	0.209853
990.388	0.227463
991.573	0.23987
992.758	0.255907
993.943	0.253541
995.128	0.235199
996.313	0.231178
997.498	0.24599
998.683	0.243365
999.868	0.243622
1001.05	0.240546
1002.24	0.240714
1003.42	0.239075
1004.61	0.241252
1005.79	0.246114
1006.98	0.263896
1008.16	0.273162
1009.35	0.275146
1010.53	0.279402
1011.72	0.299803
1012.9	0.333235
1014.09	0.360138
1015.27	0.38789
1016.46	0.413152
1017.64	0.437366
1018.83	0.462594
1020.01	0.49213
1021.2	0.52385
1022.38	0.557076
1023.57	0.583175
1024.75	0.6097
1025.94	0.633387
1027.12	0.666313
1028.31	0.702744
1029.49	0.732616
1030.68	0.752424
1031.86	0.776105
1033.05	0.800942
1034.23	0.817544
1035.42	0.834599
1036.6	0.854611
1037.79	0.872496
1038.97	0.881359
1040.16	0.879835
1041.34	0.880261
1042.53	0.882124
1043.71	0.877663
1044.9	0.876258
1046.08	0.867515
1047.27	0.856354
1048.45	0.844583
1049.64	0.832899
1050.82	0.813951
1052.01	0.8026
1053.19	0.794848
1054.38	0.772063
1055.56	0.747978
1056.75	0.727379
1057.93	0.707804
1059.12	0.697507
1060.3	0.678153
1061.49	0.663169
1062.67	0.649929
1063.86	0.63585
1065.04	0.631284
1066.23	0.617138
1067.41	0.600918
1068.6	0.584288
1069.78	0.564568
1070.97	0.549815
1072.15	0.549018
1073.34	0.54259
1074.52	0.538118
1075.71	0.542466
1076.89	0.533202
1078.08	0.537222
1079.26	0.531595
1080.45	0.521595
1081.63	0.514844
1082.82	0.49806
1084	0.497115
1085.19	0.493993
1086.37	0.494234
1087.56	0.490972
1088.74	0.484031
1089.93	0.474201
1091.11	0.482083
1092.3	0.48538
1093.48	0.483686
1094.67	0.49402
1095.85	0.485897
1097.04	0.484822
1098.22	0.484932
1099.41	0.473581
1100.59	0.476855
1101.78	0.460516
1102.96	0.455094
1104.15	0.444181
1105.33	0.439506
1106.52	0.434346
1107.7	0.41916
1108.89	0.395058
1110.07	0.358849
1111.26	0.332869
1112.44	0.302571
1113.63	0.279774
1114.81	0.261527
1116	0.250069
1117.18	0.23809
1118.37	0.214815
1119.55	0.204386
1120.74	0.184523
1121.92	0.172599
1123.11	0.168713
1124.29	0.152812
1125.48	0.145912
1126.66	0.139413
1127.85	0.135902
1129.03	0.124884
1130.22	0.114404
1131.4	0.113757
1132.59	0.11685
1133.77	0.110814
1134.96	0.112138
1136.14	0.112723
1137.33	0.115589
1138.51	0.109264
1139.7	0.101516
1140.88	0.0950641
1142.07	0.101157
1143.25	0.0985219
1144.44	0.0942202
1145.62	0.102487
1146.81	0.104269
1147.99	0.106403
1149.18	0.106433
1150.36	0.0974074
1151.55	0.0855395
1152.73	0.0780418
1153.92	0.0740875
1155.1	0.0731362
1156.29	0.0776014
1157.47	0.0782184
1158.66	0.0713859
1159.84	0.0685851
1161.03	0.0622809
1162.21	0.0613657
1163.4	0.0619279
1164.58	0.0620737
1165.77	0.0680548
1166.95	0.0741075
1168.14	0.078473
1169.32	0.0901869
1170.51	0.100137
1171.69	0.105301
1172.88	0.113207
1174.06	0.123423
1175.25	0.133865
1176.43	0.145421
1177.62	0.156125
1178.8	0.167887
1179.99	0.170841
1181.17	0.173539
1182.36	0.179175
1183.54	0.178319
1184.73	0.182222
1185.91	0.183603
1187.1	0.186193
1188.28	0.193477
1189.47	0.20453
1190.65	0.207969
1191.84	0.208026
1193.02	0.203783
1194.21	0.19978
1195.39	0.20837
1196.58	0.216206
1197.76	0.220994
1198.95	0.231091
1200.13	0.245545
1201.32	0.246574
1202.5	0.244645
1203.69	0.240599
1204.87	0.235298
1206.06	0.226352
1207.24	0.208088
1208.43	0.194481
1209.61	0.194703
1210.8	0.212152
1211.98	0.218004
1213.17	0.206598
1214.35	0.204623
1215.54	0.203705
1216.72	0.202927
1217.91	0.200795
1219.09	0.211077
1220.28	0.221826
1221.46	0.240864
1222.65	0.24901
1223.83	0.257944
1225.02	0.275982
1226.2	0.300659
1227.39	0.30455
1228.57	0.299741
1229.76	0.306074
1230.94	0.31718
1232.13	0.335195
1233.31	0.339612
1234.5	0.338762
1235.68	0.348078
1236.87	0.34731
1238.05	0.353442
1239.24	0.349938
1240.42	0.353211
1241.61	0.366802
1242.79	0.375764
1243.98	0.376678
1245.16	0.380634
1246.35	0.386889
1247.53	0.381867
1248.72	0.380439
1249.9	0.381004
1251.09	0.383837
1252.27	0.387679
1253.46	0.392898
1254.64	0.398571
1255.83	0.390478
1257.01	0.392365
1258.2	0.391363
1259.38	0.386335
1260.57	0.38698
1261.75	0.388527
1262.94	0.385502
1264.12	0.378296
1265.31	0.380159
1266.49	0.38364
1267.68	0.384575
1268.86	0.38061
1270.05	0.375741
1271.23	0.367329
1272.42	0.365474
1273.6	0.370709
1274.79	0.374365
1275.97	0.373782
1277.16	0.366452
1278.34	0.357892
1279.53	0.352558
1280.71	0.360006
1281.9	0.378538
1283.08	0.374804
1284.27	0.371275
1285.45	0.379388
1286.64	0.393223
1287.82	0.394912
1289.01	0.393015
1290.19	0.392481
1291.38	0.386354
1292.56	0.381065
1293.75	0.385839
1294.93	0.399933
1296.12	0.408435
1297.3	0.410289
1298.49	0.402502
1299.67	0.396
1300.86	0.394818
1302.04	0.390323
1303.23	0.394112
1304.41	0.396058
1305.6	0.390717
1306.78	0.395057
1307.97	0.396831
1309.15	0.39703
1310.34	0.392195
1311.52	0.384631
1312.71	0.375934
1313.89	0.378283
1315.08	0.385172
1316.26	0.38911
1317.45	0.388368
1318.63	0.389304
1319.82	0.385319
1321	0.366087
1322.19	0.372106
1323.37	0.379871
1324.56	0.385696
1325.74	0.381046
1326.93	0.388543
1328.11	0.385806
1329.3	0.388639
1330.48	0.391583
1331.67	0.388312
1332.85	0.386779
1334.04	0.375233
1335.22	0.381174
1336.41	0.378867
1337.59	0.385205
1338.78	0.389952
1339.96	0.381365
1341.15	0.378747
1342.33	0.378735
1343.52	0.380452
1344.7	0.378739
1345.89	0.382556
1347.07	0.38069
1348.26	0.371905
1349.44	0.3624
1350.63	0.361661
1351.81	0.359638
1353	0.360589
1354.18	0.354625
1355.37	0.349102
1356.55	0.344794
1357.74	0.336508
1358.92	0.331573
1360.11	0.325596
1361.29	0.329445
1362.48	0.333782
1363.66	0.329716
1364.85	0.329394
1366.03	0.328427
1367.22	0.327374
1368.4	0.329448
1369.59	0.328249
1370.77	0.328038
1371.96	0.323958
1373.14	0.328352
1374.33	0.3323
1375.51	0.333669
1376.7	0.339099
1377.88	0.340234
1379.07	0.337783
1380.25	0.33055
1381.44	0.32444
1382.62	0.320604
1383.81	0.321003
1384.99	0.318369
1386.18	0.31896
1387.36	0.321748
1388.55	0.327905
1389.73	0.327889
1390.92	0.330385
1392.1	0.331664
1393.29	0.329241
1394.47	0.331397
1395.66	0.332427
1396.84	0.334142
1398.03	0.334772
1399.21	0.338985
1400.4	0.344241
1401.58	0.350087
1402.77	0.354323
1403.95	0.345678
1405.14	0.341397
1406.32	0.337742
1407.51	0.331875
1408.69	0.326907
1409.88	0.318285
1411.06	0.310499
1412.25	0.303328
1413.43	0.304302
1414.62	0.297129
1415.8	0.296141
1416.99	0.288506
1418.17	0.283708
1419.36	0.275724
1420.54	0.288125
1421.73	0.286456
1422.91	0.286327
1424.1	0.289834
1425.28	0.29354
1426.47	0.307252
1427.65	0.311341
1428.84	0.318711
1430.02	0.321997
1431.21	0.329435
1432.39	0.347771
1433.58	0.361917
1434.76	0.36966
1435.95	0.382101
1437.13	0.394736
1438.32	0.411883
1439.5	0.429632
1440.69	0.444591
1441.87	0.464615
1443.06	0.479743
1444.24	0.50949
1445.43	0.529222
1446.61	0.540163
1447.8	0.571254
1448.98	0.590192
1450.17	0.601018
1451.35	0.617941
1452.54	0.632265
1453.72	0.635663
1454.91	0.642653
1456.09	0.648533
1457.28	0.659677
1458.46	0.662485
1459.65	0.658286
1460.83	0.648044
1462.02	0.63926
1463.2	0.634633
1464.39	0.61551
1465.57	0.590141
1466.76	0.560043
1467.94	0.537688
1469.13	0.515157
1470.31	0.490379
1471.5	0.457716
1472.68	0.430709
1473.87	0.395351
1475.05	0.364688
1476.24	0.328159
1477.42	0.298726
1478.61	0.27423
1479.79	0.250242
1480.98	0.232271
1482.16	0.212592
1483.35	0.201894
1484.53	0.190852
1485.72	0.179375
1486.9	0.166156
1488.09	0.160986
1489.27	0.154261
1490.46	0.148969
1491.64	0.150431
1492.83	0.145738
1494.01	0.142272
1495.2	0.13923
1496.38	0.136573
1497.57	0.128845
1498.75	0.126817
1499.94	0.126546
1501.12	0.12482
1502.31	0.128111
1503.49	0.127533
1504.68	0.12446
1505.86	0.127976
1507.05	0.123607
1508.23	0.111996
1509.42	0.115302
1510.6	0.123415
1511.79	0.118333
1512.97	0.114563
1514.16	0.115704
1515.34	0.117721
1516.53	0.116635
1517.71	0.115661
1518.9	0.104034
1520.08	0.090077
1521.27	0.0815835
1522.45	0.070268
1523.64	0.0707152
1524.82	0.072811
1526.01	0.0751126
1527.19	0.065118
1528.38	0.0600855
1529.56	0.061359
1530.75	0.055795
1531.93	0.0446659
1533.12	0.0406713
1534.3	0.0358361
1535.49	0.0330855
1536.67	0.0374878
1537.86	0.0430524
1539.04	0.0435681
1540.23	0.0380801
1541.41	0.0353488
1542.6	0.0344378
1543.78	0.0365762
1544.97	0.0361085
1546.15	0.0350722
1547.34	0.0361701
1548.52	0.0396845
1549.71	0.0377009
1550.89	0.039531
1552.08	0.0462977
1553.26	0.0503824
1554.45	0.0508802
1555.63	0.0530812
1556.82	0.0544287
1558	0.0534214
1559.19	0.047793
1560.37	0.0456127
1561.56	0.0456418
1562.74	0.0449717
1563.93	0.045304
1565.11	0.0465977
1566.3	0.0484993
1567.48	0.047898
1568.67	0.0434015
1569.85	0.0449245
1571.04	0.0457993
1572.22	0.0461474
1573.41	0.0475594
1574.59	0.0509329
1575.78	0.0563739
1576.96	0.0589053
1578.15	0.0602683
1579.33	0.0583982
1580.52	0.0615191
1581.7	0.0636253
1582.89	0.0616886
1584.07	0.0604898
1585.26	0.0620888
1586.44	0.0573422
1587.63	0.0628096
1588.81	0.0676564
1590	0.0683852
1591.18	0.0675113
1592.37	0.0662638
1593.55	0.0653842
1594.74	0.0626657
1595.92	0.0612458
1597.11	0.0627313
1598.29	0.0608368
1599.48	0.0668862
1600.66	0.0688416
1601.85	0.0733014
1603.03	0.083393
1604.22	0.0867998
1605.4	0.0838083
1606.59	0.0836409
1607.77	0.0834918
1608.96	0.0858934
1610.14	0.0859706
1611.33	0.0910265
1612.51	0.0973524
1613.7	0.0967127
1614.88	0.0985767
1616.07	0.102372
1617.25	0.107561
1618.44	0.107998
1619.62	0.103623
1620.81	0.101798
1621.99	0.102955
1623.18	0.100847
1624.36	0.0993161
1625.55	0.102374
1626.73	0.109298
1627.92	0.108883
1629.1	0.112444
1630.29	0.111671
1631.47	0.108383
1632.66	0.102808
1633.84	0.100176
1635.03	0.0955683
1636.21	0.0938279
1637.4	0.0947124
1638.58	0.100279
1639.77	0.105036
1640.95	0.103934
1642.14	0.100083
1643.32	0.100054
1644.51	0.102038
1645.69	0.0999107
1646.88	0.0997665
1648.06	0.0997536
1649.25	0.099839
1650.43	0.101358
1651.62	0.110472
1652.8	0.107593
1653.99	0.108248
1655.17	0.10889
1656.36	0.110917
1657.54	0.116594
1658.73	0.118085
1659.91	0.118149
1661.1	0.117279
1662.28	0.116791
1663.47	0.116503
1664.65	0.113891
1665.84	0.112073
1667.02	0.112244
1668.21	0.107376
1669.39	0.116749
1670.58	0.114385
1671.76	0.110101
1672.95	0.10916
1674.13	0.100916
1675.32	0.0957927
1676.5	0.0880067
1677.69	0.081769
1678.87	0.0803068
1680.06	0.0759257
1681.24	0.0767734
1682.43	0.0806187
1683.61	0.0718263
1684.8	0.0694154
1685.98	0.0569264
1687.17	0.0504388
1688.35	0.0498692
1689.54	0.0451639
1690.72	0.0394283
1691.91	0.0389764
1693.09	0.042427
1694.28	0.042672
1695.46	0.0368354
1696.65	0.0291661
1697.83	0.0266341
1699.02	0.0255905
1700.2	0.0264079
1701.39	0.0232213
1702.57	0.0254293
1703.76	0.0277707
1704.94	0.0284057
1706.13	0.029225
1707.31	0.032584
1708.5	0.031741
1709.68	0.0336034
1710.87	0.0364238
1712.05	0.0426944
1713.24	0.0507968
1714.42	0.0513544
1715.61	0.0581086
1716.79	0.0581713
1717.98	0.0609327
1719.16	0.0624224
1720.35	0.0595654
1721.53	0.0543333
1722.72	0.0576787
1723.9	0.0555351
1725.09	0.0537612
1726.27	0.0545168
1727.46	0.0505445
1728.64	0.0508941
1729.83	0.053036
1731.01	0.0456666
1732.2	0.0389041
1733.38	0.0412685
1734.57	0.0419254
1735.75	0.034522
1736.94	0.0350857
1738.12	0.0356049
1739.31	0.0295638
1740.49	0.0335166
1741.68	0.0347264
1742.86	0.0269636
1744.05	0.0297826
1745.23	0.032948
1746.42	0.0329532
1747.6	0.033898
1748.79	0.0331521
1749.97	0.0286918
1751.16	0.0323153
1752.34	0.0362741
1753.53	0.036869
1754.71	0.0405777
1755.9	0.0512933
1757.08	0.0551732
1758.27	0.0526931
1759.45	0.0574231
1760.64	0.0530156
1761.82	0.0535911
1763.01	0.0566548
1764.19	0.0615398
1765.38	0.066788
1766.56	0.066883
1767.75	0.0659112
1768.93	0.0704937
1770.12	0.0695465
1771.3	0.0676191
1772.49	0.0634907
1773.67	0.061133
1774.86	0.0636207
1776.04	0.0641136
1777.23	0.064277
1778.41	0.052796
1779.6	0.0514582
1780.78	0.0468395
1781.97	0.0455014
1783.15	0.0407723
1784.34	0.031801
1785.52	0.0286253
1786.71	0.0271199
1787.89	0.0240636
1789.08	0.0224881
1790.26	0.0222763
1791.45	0.0277211
1792.63	0.0261358
1793.82	0.0313908
1795	0.036501
