405	0.177501
406.185	0.190943
407.37	0.201724
408.555	0.206672
409.74	0.208812
410.925	0.206179
412.11	0.201908
413.295	0.196933
414.48	0.196509
415.665	0.219571
416.85	0.21939
418.035	0.215804
419.22	0.203821
420.405	0.213982
421.59	0.196194
422.775	0.174831
423.96	0.161348
425.145	0.151269
426.33	0.14532
427.515	0.140345
428.7	0.122054
429.885	0.116414
431.07	0.101041
432.255	0.0924759
433.44	0.0750712
434.625	0.0474792
435.81	0.0265586
436.995	0.0200366
438.18	0.017258
439.365	0.00573679
440.55	-0.00645977
441.735	0.00714384
442.92	0.00471585
444.105	-0.00458593
445.29	-0.00690892
446.475	-0.00589275
447.66	0.00120302
448.845	0.00148627
450.03	0.0073191
451.215	0.0233508
452.4	0.0285842
453.585	0.0461348
454.77	0.0808248
455.955	0.0902319
457.14	0.085832
458.325	0.111729
459.51	0.146614
460.695	0.168706
461.88	0.19905
463.065	0.247645
464.25	0.29357
465.435	0.323746
466.62	0.357086
467.805	0.398798
468.99	0.452857
470.175	0.481761
471.36	0.520335
472.545	0.568843
473.73	0.611691
474.915	0.6613
476.1	0.716653
477.285	0.759389
478.47	0.791188
479.655	0.837134
480.84	0.884591
482.025	0.898562
483.21	0.903248
484.395	0.91068
485.58	0.931146
486.765	0.942513
487.95	0.939833
489.135	0.941716
490.32	0.948225
491.505	0.941322
492.69	0.922134
493.875	0.897418
495.06	0.861749
496.245	0.833621
497.43	0.795498
498.615	0.744994
499.8	0.697775
500.985	0.667256
502.17	0.638662
503.355	0.615361
504.54	0.593897
505.725	0.556527
506.91	0.521929
508.095	0.497138
509.28	0.465985
510.465	0.443999
511.65	0.411632
512.835	0.389065
514.02	0.379107
515.205	0.371331
516.39	0.362321
517.575	0.352756
518.76	0.342426
519.945	0.331794
521.13	0.32457
522.315	0.324337
523.5	0.298568
524.685	0.299626
525.87	0.304734
527.055	0.317161
528.24	0.320014
529.424	0.324422
530.61	0.34167
531.795	0.356515
532.98	0.354975
534.165	0.352889
535.35	0.368904
536.535	0.383843
537.72	0.387597
538.905	0.397475
540.09	0.392244
541.275	0.386976
542.46	0.401497
543.645	0.414834
544.83	0.421334
546.014	0.420777
547.199	0.415278
548.384	0.403883
549.569	0.383893
550.754	0.368766
551.939	0.360591
553.124	0.363117
554.309	0.353629
555.494	0.335079
556.679	0.324304
557.864	0.329558
559.049	0.339007
560.234	0.347279
561.419	0.348042
562.604	0.337178
563.789	0.323212
564.974	0.319464
566.159	0.3238
567.344	0.321454
568.529	0.333119
569.714	0.350505
570.899	0.348376
572.084	0.342483
573.269	0.34042
574.454	0.341702
575.639	0.343286
576.824	0.334255
578.009	0.31333
579.194	0.288885
580.379	0.270917
581.564	0.275582
582.749	0.27576
583.934	0.270738
585.119	0.240269
586.304	0.238406
587.489	0.228539
588.674	0.205538
589.859	0.190889
591.044	0.181633
592.229	0.173379
593.414	0.167974
594.599	0.163531
595.784	0.157113
596.969	0.155361
598.154	0.165603
599.339	0.177505
600.524	0.151743
601.709	0.142684
602.894	0.136435
604.079	0.143905
605.264	0.142084
606.449	0.132527
607.634	0.130727
608.819	0.134434
610.004	0.14148
611.189	0.144769
612.374	0.137917
613.559	0.140492
614.744	0.141373
615.929	0.119729
617.114	0.108094
618.299	0.0962522
619.484	0.0934365
620.669	0.0886369
621.854	0.0922176
623.039	0.0768871
624.224	0.0725337
625.409	0.0774404
626.594	0.0711826
627.779	0.0646105
628.964	0.0642799
630.149	0.0526249
631.334	0.0473588
632.519	0.0249271
633.704	0.018328
634.889	0.0253843
636.074	0.0197878
637.259	0.0180131
638.444	0.0205926
639.629	0.020227
640.814	0.0230179
641.999	0.0311226
643.184	0.0361806
644.369	0.0374567
645.554	0.0431478
646.739	0.0496769
647.924	0.0469507
649.109	0.0458659
650.294	0.0457825
651.479	0.0626548
652.664	0.0731805
653.849	0.0882969
655.034	0.0938143
656.219	0.0981885
657.404	0.105262
658.589	0.117907
659.774	0.124336
660.959	0.134125
662.144	0.151231
663.329	0.167692
664.514	0.175705
665.699	0.173912
666.884	0.179772
668.069	0.199051
669.254	0.21044
670.439	0.216566
671.624	0.216199
672.809	0.206943
673.994	0.21519
675.179	0.203718
676.364	0.194919
677.549	0.178188
678.734	0.160295
679.919	0.139949
681.104	0.112549
682.289	0.0916884
683.474	0.0876016
684.659	0.0837523
685.844	0.065726
687.029	0.0483971
688.214	0.0511144
689.399	0.0348386
690.584	0.0230935
691.769	0.0324176
692.954	0.0239525
694.139	0.0345751
695.324	0.0370281
696.509	0.03697
697.694	0.040101
698.879	0.0520128
700.064	0.0669609
701.249	0.0705144
702.434	0.0602352
703.619	0.0540498
704.804	0.06599
705.989	0.0778208
707.174	0.0698989
708.359	0.0771913
709.544	0.0744636
710.729	0.0793079
711.914	0.0983298
713.099	0.0925718
714.284	0.0880143
715.469	0.0899198
716.654	0.0912868
717.839	0.0859387
719.024	0.0773884
720.209	0.0769673
721.394	0.0946923
722.579	0.112232
723.764	0.102129
724.949	0.0851253
726.134	0.0965972
727.319	0.107276
728.504	0.114409
729.689	0.105262
730.874	0.0927192
732.059	0.10206
733.244	0.107447
734.429	0.122737
735.614	0.114774
736.799	0.115953
737.984	0.119453
739.169	0.117243
740.354	0.103052
741.539	0.0971888
742.724	0.115375
743.909	0.125491
745.094	0.114104
746.279	0.112788
747.464	0.120126
748.649	0.11963
749.834	0.122959
751.019	0.117866
752.204	0.113247
753.389	0.0902074
754.574	0.0974155
755.759	0.0988541
756.944	0.089529
758.129	0.0872973
759.314	0.0818254
760.499	0.0693981
761.684	0.0524121
762.869	0.0344157
764.054	0.0255166
765.239	0.0177459
766.424	0.00822813
767.609	0.00144013
768.794	0.000682074
769.979	0.0105555
771.164	0.0252289
772.349	0.034182
773.534	0.0219292
774.719	0.00222546
775.904	-0.00183445
777.089	0.00602755
778.274	0.0181841
779.459	0.0142563
780.644	0.010221
781.829	0.0313126
783.014	0.0296987
784.199	0.0191634
785.384	0.0139511
786.569	0.013416
787.754	0.0125416
788.939	0.00572729
790.124	-0.00365817
791.309	-0.0026107
792.494	0.0112881
793.679	0.0266099
794.864	0.0415398
796.049	0.0595301
797.234	0.0727667
798.419	0.0925337
799.604	0.11656
800.789	0.133223
801.974	0.153308
803.159	0.189635
804.344	0.226202
805.529	0.246017
806.714	0.263402
807.898	0.27331
809.083	0.2963
810.268	0.308802
811.454	0.32279
812.639	0.33539
813.824	0.33419
815.009	0.333364
816.194	0.344685
817.379	0.360072
818.564	0.366156
819.749	0.365369
820.934	0.365686
822.119	0.368688
823.304	0.377216
824.489	0.382595
825.673	0.40191
826.858	0.429147
828.043	0.451527
829.228	0.486145
830.413	0.512307
831.598	0.550596
832.783	0.593624
833.968	0.634525
835.153	0.661237
836.338	0.677457
837.523	0.722135
838.708	0.77636
839.893	0.801997
841.078	0.812619
842.263	0.825399
843.448	0.841965
844.633	0.843676
845.818	0.847582
847.003	0.857692
848.188	0.860237
849.373	0.850653
850.558	0.82854
851.743	0.80238
852.928	0.773434
854.113	0.762293
855.298	0.753329
856.483	0.715146
857.668	0.673896
858.853	0.649267
860.038	0.618375
861.223	0.599591
862.408	0.566776
863.593	0.565301
864.778	0.526185
865.963	0.481948
867.148	0.463714
868.333	0.451426
869.518	0.430894
870.703	0.416665
871.888	0.395662
873.073	0.37622
874.258	0.358832
875.443	0.34539
876.628	0.339097
877.813	0.339622
878.998	0.343928
880.183	0.348625
881.368	0.350282
882.553	0.349571
883.738	0.348541
884.923	0.34637
886.108	0.343105
887.293	0.338525
888.478	0.34591
889.663	0.358528
890.848	0.374723
892.033	0.375239
893.218	0.377875
894.403	0.393857
895.588	0.406728
896.773	0.418612
897.958	0.412681
899.143	0.399569
900.328	0.399673
901.513	0.41368
902.698	0.455878
903.883	0.465941
905.068	0.489964
906.253	0.505744
907.438	0.520296
908.623	0.537057
909.808	0.547465
910.993	0.558427
912.178	0.560393
913.363	0.560516
914.548	0.556244
915.733	0.557098
916.918	0.565965
918.103	0.563335
919.288	0.550477
920.473	0.531517
921.658	0.507533
922.843	0.488505
924.028	0.461343
925.213	0.427533
926.398	0.392782
927.583	0.356421
928.768	0.334402
929.953	0.309423
931.138	0.298011
932.323	0.279935
933.508	0.266983
934.693	0.251982
935.878	0.234291
937.063	0.233913
938.248	0.217117
939.433	0.199375
940.618	0.19876
941.803	0.186916
942.988	0.197774
944.173	0.19995
945.358	0.206124
946.543	0.197467
947.728	0.197001
948.913	0.190318
950.098	0.19012
951.283	0.191162
952.468	0.186486
953.653	0.190523
954.838	0.19812
956.023	0.207358
957.208	0.229407
958.393	0.239149
959.578	0.249393
960.763	0.25534
961.948	0.25603
963.133	0.257556
964.318	0.258208
965.503	0.266716
966.688	0.278547
967.873	0.281157
969.058	0.281079
970.243	0.284353
971.428	0.28701
972.613	0.289678
973.798	0.289429
974.983	0.282511
976.168	0.265489
977.353	0.267747
978.538	0.266926
979.723	0.262824
980.908	0.26413
982.093	0.269157
983.278	0.283557
984.463	0.288265
985.648	0.288188
986.833	0.292508
988.018	0.286913
989.203	0.288478
990.388	0.290216
991.573	0.297602
992.758	0.294086
993.943	0.295516
995.128	0.298057
996.313	0.296814
997.498	0.306532
998.683	0.319874
999.868	0.317017
1001.05	0.312515
1002.24	0.316224
1003.42	0.328503
1004.61	0.319929
1005.79	0.333181
1006.98	0.344662
1008.16	0.361088
1009.35	0.373298
1010.53	0.379873
1011.72	0.400415
1012.9	0.414405
1014.09	0.422007
1015.27	0.439049
1016.46	0.456851
1017.64	0.472995
1018.83	0.500879
1020.01	0.511147
1021.2	0.526344
1022.38	0.558535
1023.57	0.587864
1024.75	0.613911
1025.94	0.633893
1027.12	0.655571
1028.31	0.686378
1029.49	0.717183
1030.68	0.74386
1031.86	0.768092
1033.05	0.787685
1034.23	0.801122
1035.42	0.821833
1036.6	0.832539
1037.79	0.836434
1038.97	0.849177
1040.16	0.854244
1041.34	0.85176
1042.53	0.841043
1043.71	0.83347
1044.9	0.818797
1046.08	0.800597
1047.27	0.790376
1048.45	0.780461
1049.64	0.767865
1050.82	0.749374
1052.01	0.734956
1053.19	0.711864
1054.38	0.693322
1055.56	0.676128
1056.75	0.646039
1057.93	0.620525
1059.12	0.605865
1060.3	0.593277
1061.49	0.589283
1062.67	0.572701
1063.86	0.564951
1065.04	0.549826
1066.23	0.533634
1067.41	0.51816
1068.6	0.51225
1069.78	0.498973
1070.97	0.492605
1072.15	0.476577
1073.34	0.465849
1074.52	0.480393
1075.71	0.468291
1076.89	0.463198
1078.08	0.456323
1079.26	0.439724
1080.45	0.436104
1081.63	0.427549
1082.82	0.421528
1084	0.404183
1085.19	0.404798
1086.37	0.400266
1087.56	0.390031
1088.74	0.389895
1089.93	0.389624
1091.11	0.399499
1092.3	0.380582
1093.48	0.383496
1094.67	0.36925
1095.85	0.373347
1097.04	0.367675
1098.22	0.365423
1099.41	0.355557
1100.59	0.354486
1101.78	0.358581
1102.96	0.351264
1104.15	0.352257
1105.33	0.360317
1106.52	0.339555
1107.7	0.327244
1108.89	0.324409
1110.07	0.318145
1111.26	0.316845
1112.44	0.313699
1113.63	0.29316
1114.81	0.276782
1116	0.256233
1117.18	0.241582
1118.37	0.225002
1119.55	0.197079
1120.74	0.174036
1121.92	0.134533
1123.11	0.0969485
1124.29	0.0943284
1125.48	0.0724096
1126.66	0.0527132
1127.85	0.038429
1129.03	0.0154334
1130.22	0.00814508
1131.4	0.00854542
1132.59	-0.0026868
1133.77	-0.00665576
1134.96	-0.00462394
1136.14	-0.00311582
1137.33	0.011962
1138.51	0.0127892
1139.7	0.0246748
1140.88	0.0328019
1142.07	0.0277121
1143.25	0.0430243
1144.44	0.039917
1145.62	0.0404145
1146.81	0.0487545
1147.99	0.0446992
1149.18	0.0386567
1150.36	0.0387896
1151.55	0.0423197
1152.73	0.0289628
1153.92	0.0151904
1155.1	0.00292131
1156.29	0.00251466
1157.47	0.00455842
1158.66	0.00667041
1159.84	0.0124649
1161.03	0.00786583
1162.21	0.00338256
1163.4	-0.00283828
1164.58	-0.0105657
1165.77	-0.00710837
1166.95	0.00683065
1168.14	0.0159448
1169.32	0.0134162
1170.51	0.0161746
1171.69	0.017374
1172.88	0.0118572
1174.06	0.0153146
1175.25	0.0179586
1176.43	0.0197917
1177.62	0.0161464
1178.8	0.0201311
1179.99	0.0256419
1181.17	0.0339621
1182.36	0.031296
1183.54	0.0219684
1184.73	0.0168008
1185.91	0.0168185
1187.1	0.0135291
1188.28	0.0143807
1189.47	0.0254329
1190.65	0.0363467
1191.84	0.042448
1193.02	0.0520077
1194.21	0.0538425
1195.39	0.049784
1196.58	0.0454175
1197.76	0.0480113
1198.95	0.0498377
1200.13	0.0567767
1201.32	0.0571517
1202.5	0.051609
1203.69	0.0580336
1204.87	0.068454
1206.06	0.0701397
1207.24	0.0728431
1208.43	0.0793419
1209.61	0.0755606
1210.8	0.0801411
1211.98	0.0802992
1213.17	0.100806
1214.35	0.116554
1215.54	0.123305
1216.72	0.125079
1217.91	0.12148
1219.09	0.139753
1220.28	0.157166
1221.46	0.168319
1222.65	0.177322
1223.83	0.183868
1225.02	0.190163
1226.2	0.192937
1227.39	0.197943
1228.57	0.193163
1229.76	0.191121
1230.94	0.182665
1232.13	0.172346
1233.31	0.164927
1234.5	0.174139
1235.68	0.19744
1236.87	0.200979
1238.05	0.196131
1239.24	0.189896
1240.42	0.207005
1241.61	0.216648
1242.79	0.214141
1243.98	0.228634
1245.16	0.231894
1246.35	0.244392
1247.53	0.256154
1248.72	0.265718
1249.9	0.276389
1251.09	0.284196
1252.27	0.276213
1253.46	0.264675
1254.64	0.263689
1255.83	0.279008
1257.01	0.282051
1258.2	0.279165
1259.38	0.284777
1260.57	0.281088
1261.75	0.27978
1262.94	0.275226
1264.12	0.272235
1265.31	0.282815
1266.49	0.294545
1267.68	0.302143
1268.86	0.308736
1270.05	0.311272
1271.23	0.313151
1272.42	0.303018
1273.6	0.293728
1274.79	0.287533
1275.97	0.278852
1277.16	0.277732
1278.34	0.276867
1279.53	0.277443
1280.71	0.289782
1281.9	0.283902
1283.08	0.263829
1284.27	0.25381
1285.45	0.243395
1286.64	0.236332
1287.82	0.257001
1289.01	0.254128
1290.19	0.256224
1291.38	0.250714
1292.56	0.260702
1293.75	0.256723
1294.93	0.257919
1296.12	0.258169
1297.3	0.262169
1298.49	0.267716
1299.67	0.281471
1300.86	0.292705
1302.04	0.298992
1303.23	0.315273
1304.41	0.321972
1305.6	0.320448
1306.78	0.327871
1307.97	0.335214
1309.15	0.344028
1310.34	0.341154
1311.52	0.342736
1312.71	0.349366
1313.89	0.34933
1315.08	0.340577
1316.26	0.33213
1317.45	0.325796
1318.63	0.32486
1319.82	0.318292
1321	0.315142
1322.19	0.313673
1323.37	0.307808
1324.56	0.303486
1325.74	0.31
1326.93	0.300296
1328.11	0.30191
1329.3	0.294357
1330.48	0.294959
1331.67	0.286979
1332.85	0.292518
1334.04	0.284103
1335.22	0.283484
1336.41	0.278999
1337.59	0.272857
1338.78	0.265413
1339.96	0.261316
1341.15	0.266646
1342.33	0.264246
1343.52	0.257254
1344.7	0.268064
1345.89	0.27173
1347.07	0.27511
1348.26	0.277635
1349.44	0.276927
1350.63	0.286628
1351.81	0.291203
1353	0.28794
1354.18	0.287673
1355.37	0.293663
1356.55	0.302377
1357.74	0.303555
1358.92	0.296225
1360.11	0.299241
1361.29	0.290743
1362.48	0.293065
1363.66	0.285542
1364.85	0.285968
1366.03	0.284226
1367.22	0.271763
1368.4	0.252067
1369.59	0.245053
1370.77	0.242995
1371.96	0.239473
1373.14	0.230144
1374.33	0.218832
1375.51	0.213632
1376.7	0.215216
1377.88	0.21227
1379.07	0.207655
1380.25	0.202733
1381.44	0.19595
1382.62	0.189194
1383.81	0.193274
1384.99	0.192618
1386.18	0.195358
1387.36	0.194829
1388.55	0.208456
1389.73	0.203979
1390.92	0.213344
1392.1	0.208055
1393.29	0.2015
1394.47	0.212764
1395.66	0.209237
1396.84	0.201445
1398.03	0.190474
1399.21	0.196018
1400.4	0.200192
1401.58	0.20209
1402.77	0.204625
1403.95	0.206912
1405.14	0.199045
1406.32	0.192713
1407.51	0.196703
1408.69	0.195844
1409.88	0.196206
1411.06	0.195346
1412.25	0.191608
1413.43	0.196898
1414.62	0.213032
1415.8	0.221122
1416.99	0.221425
1418.17	0.229007
1419.36	0.242174
1420.54	0.240513
1421.73	0.256814
1422.91	0.260379
1424.1	0.259258
1425.28	0.264492
1426.47	0.280061
1427.65	0.288554
1428.84	0.296842
1430.02	0.312343
1431.21	0.321991
1432.39	0.327898
1433.58	0.331941
1434.76	0.335047
1435.95	0.345353
1437.13	0.355653
1438.32	0.362527
1439.5	0.380197
1440.69	0.408593
1441.87	0.430513
1443.06	0.451184
1444.24	0.474399
1445.43	0.485317
1446.61	0.512642
1447.8	0.526497
1448.98	0.543115
1450.17	0.555644
1451.35	0.576144
1452.54	0.587305
1453.72	0.600416
1454.91	0.616869
1456.09	0.621891
1457.28	0.619105
1458.46	0.613446
1459.65	0.603205
1460.83	0.585103
1462.02	0.569351
1463.2	0.544752
1464.39	0.52725
1465.57	0.494836
1466.76	0.468416
1467.94	0.435463
1469.13	0.407554
1470.31	0.374725
1471.5	0.34519
1472.68	0.314149
1473.87	0.286199
1475.05	0.253785
1476.24	0.225598
1477.42	0.19994
1478.61	0.184509
1479.79	0.170141
1480.98	0.14857
1482.16	0.130083
1483.35	0.1199
1484.53	0.112933
1485.72	0.111057
1486.9	0.115029
1488.09	0.111179
1489.27	0.101001
1490.46	0.108743
1491.64	0.109056
1492.83	0.103912
1494.01	0.105888
1495.2	0.097719
1496.38	0.0870307
1497.57	0.0897744
1498.75	0.103671
1499.94	0.108433
1501.12	0.105747
1502.31	0.107851
1503.49	0.101902
1504.68	0.0948394
1505.86	0.101404
1507.05	0.0986311
1508.23	0.0884712
1509.42	0.0874425
1510.6	0.0883313
1511.79	0.0833417
1512.97	0.0820018
1514.16	0.0854455
1515.34	0.0750589
1516.53	0.0657021
1517.71	0.0708624
1518.9	0.0641222
1520.08	0.0501422
1521.27	0.0417743
1522.45	0.033635
1523.64	0.0212254
1524.82	0.0194536
1526.01	0.0167294
1527.19	0.0093612
1528.38	0.0170539
1529.56	0.015394
1530.75	0.00613749
1531.93	0.00526789
1533.12	0.010437
1534.3	0.000563986
1535.49	-0.0034804
1536.67	-0.00314244
1537.86	0.00795555
1539.04	0.00545988
1540.23	0.00194059
1541.41	0.00323811
1542.6	0.00494177
1543.78	0.0075917
1544.97	0.00729648
1546.15	0.0153769
1547.34	0.0164372
1548.52	0.0145414
1549.71	0.00858714
1550.89	0.00616005
1552.08	0.00609941
1553.26	0.0106312
1554.45	0.00815183
1555.63	0.0105839
1556.82	0.0122895
1558	0.0127696
1559.19	0.0132488
1560.37	0.0125116
1561.56	0.00786416
1562.74	0.00418822
1563.93	-0.00129751
1565.11	-0.00324507
1566.3	0.00640294
1567.48	0.0185571
1568.67	0.0183768
1569.85	0.0153843
1571.04	0.0121959
1572.22	0.0110883
1573.41	0.0183832
1574.59	0.0259918
1575.78	0.0262392
1576.96	0.0259382
1578.15	0.0288771
1579.33	0.0340992
1580.52	0.0374386
1581.7	0.0385169
1582.89	0.0312044
1584.07	0.0266374
1585.26	0.0295003
1586.44	0.0357544
1587.63	0.04146
1588.81	0.0452958
1590	0.0416345
1591.18	0.0404768
1592.37	0.0439804
1593.55	0.0459786
1594.74	0.0423663
1595.92	0.0433628
1597.11	0.047683
1598.29	0.0521116
1599.48	0.0546855
1600.66	0.0522967
1601.85	0.0448181
1603.03	0.0417922
1604.22	0.0363021
1605.4	0.0384209
1606.59	0.0491619
1607.77	0.0554079
1608.96	0.0578086
1610.14	0.0629516
1611.33	0.07561
1612.51	0.0755064
1613.7	0.0787311
1614.88	0.078394
1616.07	0.0878549
1617.25	0.0979929
1618.44	0.110548
1619.62	0.114493
1620.81	0.11872
1621.99	0.12016
1623.18	0.116279
1624.36	0.116327
1625.55	0.117077
1626.73	0.119459
1627.92	0.121973
1629.1	0.107829
1630.29	0.110009
1631.47	0.113694
1632.66	0.110491
1633.84	0.110184
1635.03	0.107429
1636.21	0.111229
1637.4	0.113785
1638.58	0.115874
1639.77	0.108948
1640.95	0.104584
1642.14	0.106225
1643.32	0.108305
1644.51	0.117598
1645.69	0.128675
1646.88	0.125852
1648.06	0.121498
1649.25	0.12501
1650.43	0.123918
1651.62	0.134067
1652.8	0.131476
1653.99	0.133439
1655.17	0.131169
1656.36	0.137987
1657.54	0.146711
1658.73	0.146732
1659.91	0.142576
1661.1	0.132931
1662.28	0.128524
1663.47	0.129471
1664.65	0.137088
1665.84	0.140571
1667.02	0.144062
1668.21	0.146849
1669.39	0.154698
1670.58	0.157496
1671.76	0.165194
1672.95	0.162152
1674.13	0.15442
1675.32	0.154918
1676.5	0.15949
1677.69	0.168289
1678.87	0.16864
1680.06	0.170017
1681.24	0.164099
1682.43	0.161023
1683.61	0.164597
1684.8	0.155502
1685.98	0.152038
1687.17	0.146186
1688.35	0.137372
1689.54	0.141404
1690.72	0.14702
1691.91	0.147099
1693.09	0.142643
1694.28	0.143797
1695.46	0.14327
1696.65	0.131566
1697.83	0.137077
1699.02	0.139787
1700.2	0.135557
1701.39	0.135648
1702.57	0.138835
1703.76	0.141752
1704.94	0.141153
1706.13	0.134552
1707.31	0.134302
1708.5	0.135592
1709.68	0.137101
1710.87	0.136458
1712.05	0.138467
1713.24	0.153592
1714.42	0.146999
1715.61	0.149016
1716.79	0.157021
1717.98	0.158717
1719.16	0.160995
1720.35	0.160346
1721.53	0.162295
1722.72	0.168336
1723.9	0.163065
1725.09	0.161217
1726.27	0.154177
1727.46	0.148107
1728.64	0.148235
1729.83	0.154042
1731.01	0.152424
1732.2	0.141761
1733.38	0.136658
1734.57	0.134874
1735.75	0.13349
1736.94	0.13454
1738.12	0.140856
1739.31	0.134038
1740.49	0.129963
1741.68	0.133238
1742.86	0.141327
1744.05	0.141438
1745.23	0.135845
1746.42	0.129005
1747.6	0.126405
1748.79	0.126016
1749.97	0.126743
1751.16	0.12078
1752.34	0.115873
1753.53	0.115733
1754.71	0.115452
1755.9	0.115918
1757.08	0.115475
1758.27	0.108955
1759.45	0.102898
1760.64	0.0996549
1761.82	0.0965541
1763.01	0.091533
1764.19	0.093793
1765.38	0.088566
1766.56	0.0853206
1767.75	0.0879483
1768.93	0.0826778
1770.12	0.0728154
1771.3	0.0617356
1772.49	0.0638992
1773.67	0.0625197
1774.86	0.0595999
1776.04	0.0557662
1777.23	0.0483577
1778.41	0.0530294
1779.6	0.0518384
1780.78	0.043395
1781.97	0.0374783
1783.15	0.0321524
1784.34	0.0279791
1785.52	0.0232732
1786.71	0.0234372
1787.89	0.0186963
1789.08	0.0142577
1790.26	0.00474034
1791.45	0.00558711
1792.63	0.00136907
1793.82	-0.00252943
1795	-0.00578223
