405	0.230214
406.185	0.255309
407.37	0.27799
408.555	0.299914
409.74	0.319473
410.925	0.337715
412.11	0.350201
413.295	0.357424
414.48	0.366841
415.665	0.372833
416.85	0.358672
418.035	0.352057
419.22	0.342082
420.405	0.335145
421.59	0.327353
422.775	0.310155
423.96	0.285352
425.145	0.260246
426.33	0.236624
427.515	0.211215
428.7	0.189286
429.885	0.175891
431.07	0.138611
432.255	0.127572
433.44	0.105362
434.625	0.0828712
435.81	0.0626513
436.995	0.0505279
438.18	0.0401965
439.365	0.0195335
440.55	0.0077388
441.735	0.00326693
442.92	-0.00884422
444.105	-0.00204768
445.29	-0.00376253
446.475	-0.0026949
447.66	-0.00162484
448.845	-0.00707017
450.03	-0.00846143
451.215	-0.00311417
452.4	-0.0042684
453.585	0.000884858
454.77	0.00796104
455.955	0.0373523
457.14	0.0542589
458.325	0.0896373
459.51	0.126163
460.695	0.148874
461.88	0.178864
463.065	0.212079
464.25	0.239069
465.435	0.273096
466.62	0.299884
467.805	0.343804
468.99	0.384215
470.175	0.435501
471.36	0.482953
472.545	0.537806
473.73	0.598226
474.915	0.656507
476.1	0.705724
477.285	0.742897
478.47	0.771782
479.655	0.80141
480.84	0.832087
482.025	0.856178
483.21	0.879188
484.395	0.903576
485.58	0.926672
486.765	0.939764
487.95	0.945523
489.135	0.942984
490.32	0.930126
491.505	0.910362
492.69	0.888366
493.875	0.864315
495.06	0.830653
496.245	0.793205
497.43	0.764082
498.615	0.733011
499.8	0.69654
500.985	0.659212
502.17	0.621198
503.355	0.578126
504.54	0.534269
505.725	0.499546
506.91	0.471391
508.095	0.443919
509.28	0.41072
510.465	0.389206
511.65	0.360879
512.835	0.340425
514.02	0.314204
515.205	0.297677
516.39	0.280427
517.575	0.257163
518.76	0.24068
519.945	0.233865
521.13	0.225812
522.315	0.227395
523.5	0.236626
524.685	0.232841
525.87	0.211365
527.055	0.206692
528.24	0.204981
529.424	0.208469
530.61	0.210533
531.795	0.210483
532.98	0.215826
534.165	0.224181
535.35	0.225781
536.535	0.231499
537.72	0.239218
538.905	0.252862
540.09	0.256221
541.275	0.262713
542.46	0.257477
543.645	0.254279
544.83	0.261584
546.014	0.267637
547.199	0.269258
548.384	0.269732
549.569	0.26843
550.754	0.276783
551.939	0.262902
553.124	0.248363
554.309	0.246133
555.494	0.236501
556.679	0.242275
557.864	0.24754
559.049	0.253022
560.234	0.246567
561.419	0.23405
562.604	0.233431
563.789	0.240914
564.974	0.239885
566.159	0.23852
567.344	0.232125
568.529	0.236631
569.714	0.227526
570.899	0.231318
572.084	0.235603
573.269	0.232756
574.454	0.236413
575.639	0.234117
576.824	0.217854
578.009	0.205777
579.194	0.207368
580.379	0.207305
581.564	0.20461
582.749	0.187785
583.934	0.178506
585.119	0.174786
586.304	0.177643
587.489	0.162659
588.674	0.157585
589.859	0.153363
591.044	0.146779
592.229	0.14909
593.414	0.150394
594.599	0.139669
595.784	0.131457
596.969	0.131149
598.154	0.122564
599.339	0.124425
600.524	0.119135
601.709	0.121914
602.894	0.130212
604.079	0.131645
605.264	0.119965
606.449	0.114323
607.634	0.108466
608.819	0.101483
610.004	0.098558
611.189	0.0943062
612.374	0.0860778
613.559	0.0871412
614.744	0.0940224
615.929	0.0824065
617.114	0.0650453
618.299	0.0534838
619.484	0.0535904
620.669	0.0577948
621.854	0.0452172
623.039	0.0339787
624.224	0.0318775
625.409	0.0288483
626.594	0.0245976
627.779	0.0175203
628.964	0.00819701
630.149	0.0109522
631.334	0.0147786
632.519	0.0186392
633.704	0.0044031
634.889	0.0126699
636.074	0.0206687
637.259	0.0175228
638.444	0.0224765
639.629	0.00954571
640.814	0.0100868
641.999	0.00638577
643.184	0.00315439
644.369	0.00800566
645.554	0.0164643
646.739	0.0270836
647.924	0.026841
649.109	0.0139118
650.294	0.0112512
651.479	0.0134676
652.664	0.0247975
653.849	0.0293534
655.034	0.0377896
656.219	0.0443337
657.404	0.0524131
658.589	0.0694176
659.774	0.0808589
660.959	0.0927005
662.144	0.11291
663.329	0.135919
664.514	0.151038
665.699	0.156475
666.884	0.168822
668.069	0.189412
669.254	0.194982
670.439	0.192345
671.624	0.191821
672.809	0.210514
673.994	0.207534
675.179	0.220578
676.364	0.225333
677.549	0.224515
678.734	0.216143
679.919	0.208039
681.104	0.196589
682.289	0.181014
683.474	0.169743
684.659	0.15962
685.844	0.146871
687.029	0.125825
688.214	0.118871
689.399	0.122465
690.584	0.115717
691.769	0.0963554
692.954	0.0966054
694.139	0.0900914
695.324	0.0831295
696.509	0.0723596
697.694	0.0750752
698.879	0.0779458
700.064	0.075333
701.249	0.068652
702.434	0.0608101
703.619	0.0596407
704.804	0.0664487
705.989	0.0796194
707.174	0.082276
708.359	0.071279
709.544	0.0808194
710.729	0.0763849
711.914	0.0818045
713.099	0.0814573
714.284	0.0803812
715.469	0.0835025
716.654	0.0824644
717.839	0.0825097
719.024	0.0859776
720.209	0.0897235
721.394	0.0913202
722.579	0.0906671
723.764	0.0885144
724.949	0.0843144
726.134	0.0809783
727.319	0.0886788
728.504	0.0972689
729.689	0.0947257
730.874	0.0874875
732.059	0.0800096
733.244	0.0805146
734.429	0.0788525
735.614	0.072983
736.799	0.0677449
737.984	0.0622696
739.169	0.0591821
740.354	0.0616278
741.539	0.0647009
742.724	0.0681602
743.909	0.0681715
745.094	0.0655889
746.279	0.0582571
747.464	0.0440065
748.649	0.0495779
749.834	0.0502924
751.019	0.0465955
752.204	0.0430444
753.389	0.0447191
754.574	0.0468107
755.759	0.0466215
756.944	0.0514749
758.129	0.0573158
759.314	0.0435552
760.499	0.0351235
761.684	0.0263232
762.869	0.0209949
764.054	0.0185623
765.239	0.0208875
766.424	0.0206924
767.609	0.013192
768.794	0.00892957
769.979	0.00776791
771.164	-0.000533971
772.349	-0.00464285
773.534	-0.000417423
774.719	-0.00478051
775.904	-0.0014414
777.089	-0.0105657
778.274	0.00788035
779.459	0.013381
780.644	0.0211731
781.829	0.0204127
783.014	0.01402
784.199	0.010716
785.384	0.0133676
786.569	0.01484
787.754	0.0127937
788.939	0.0153475
790.124	0.0218688
791.309	0.0189151
792.494	0.0197681
793.679	0.0296959
794.864	0.0302777
796.049	0.0368363
797.234	0.0467444
798.419	0.0592819
799.604	0.073076
800.789	0.105804
801.974	0.132926
803.159	0.156972
804.344	0.183574
805.529	0.216856
806.714	0.258179
807.898	0.279075
809.083	0.299129
810.268	0.322405
811.454	0.347215
812.639	0.361364
813.824	0.373827
815.009	0.380984
816.194	0.388846
817.379	0.397423
818.564	0.398295
819.749	0.397254
820.934	0.404711
822.119	0.413826
823.304	0.414347
824.489	0.421416
825.673	0.437282
826.858	0.458389
828.043	0.494886
829.228	0.533469
830.413	0.552114
831.598	0.587957
832.783	0.640611
833.968	0.682674
835.153	0.733456
836.338	0.784046
837.523	0.826488
838.708	0.865173
839.893	0.892008
841.078	0.913883
842.263	0.928285
843.448	0.937678
844.633	0.947988
845.818	0.948225
847.003	0.940216
848.188	0.930507
849.373	0.917824
850.558	0.899646
851.743	0.873253
852.928	0.848864
854.113	0.820581
855.298	0.792618
856.483	0.764234
857.668	0.736085
858.853	0.710355
860.038	0.686547
861.223	0.675804
862.408	0.644933
863.593	0.618201
864.778	0.587975
865.963	0.57338
867.148	0.558492
868.333	0.546689
869.518	0.533294
870.703	0.517543
871.888	0.493114
873.073	0.464487
874.258	0.441436
875.443	0.420142
876.628	0.407947
877.813	0.401855
878.998	0.38464
880.183	0.362244
881.368	0.344828
882.553	0.337797
883.738	0.331999
884.923	0.314855
886.108	0.311221
887.293	0.305034
888.478	0.310531
889.663	0.316378
890.848	0.326816
892.033	0.355617
893.218	0.377228
894.403	0.386746
895.588	0.395985
896.773	0.413913
897.958	0.437412
899.143	0.455036
900.328	0.479635
901.513	0.492232
902.698	0.504209
903.883	0.516995
905.068	0.532865
906.253	0.547736
907.438	0.562468
908.623	0.569343
909.808	0.560733
910.993	0.550814
912.178	0.557679
913.363	0.562381
914.548	0.563214
915.733	0.565819
916.918	0.566723
918.103	0.568507
919.288	0.564488
920.473	0.553738
921.658	0.542467
922.843	0.523653
924.028	0.501482
925.213	0.478111
926.398	0.458509
927.583	0.445355
928.768	0.428805
929.953	0.404433
931.138	0.374029
932.323	0.345207
933.508	0.311414
934.693	0.284052
935.878	0.26004
937.063	0.232213
938.248	0.223433
939.433	0.2108
940.618	0.207215
941.803	0.208866
942.988	0.200072
944.173	0.183743
945.358	0.17138
946.543	0.160476
947.728	0.161488
948.913	0.174273
950.098	0.179057
951.283	0.18549
952.468	0.190057
953.653	0.194623
954.838	0.199
956.023	0.201118
957.208	0.208012
958.393	0.213731
959.578	0.211609
960.763	0.212437
961.948	0.22171
963.133	0.240329
964.318	0.263841
965.503	0.2768
966.688	0.273498
967.873	0.271623
969.058	0.275588
970.243	0.273034
971.428	0.27092
972.613	0.271636
973.798	0.274933
974.983	0.275392
976.168	0.268491
977.353	0.262601
978.538	0.264853
979.723	0.258871
980.908	0.256832
982.093	0.237922
983.278	0.225856
984.463	0.233316
985.648	0.240381
986.833	0.242463
988.018	0.256551
989.203	0.266376
990.388	0.272147
991.573	0.278628
992.758	0.275503
993.943	0.273462
995.128	0.278638
996.313	0.284662
997.498	0.29685
998.683	0.298109
999.868	0.306536
1001.05	0.304772
1002.24	0.299414
1003.42	0.301253
1004.61	0.297189
1005.79	0.299324
1006.98	0.307353
1008.16	0.325182
1009.35	0.333662
1010.53	0.354648
1011.72	0.379794
1012.9	0.400696
1014.09	0.420353
1015.27	0.44148
1016.46	0.469747
1017.64	0.493955
1018.83	0.520726
1020.01	0.552138
1021.2	0.57644
1022.38	0.605047
1023.57	0.629681
1024.75	0.649417
1025.94	0.668208
1027.12	0.693138
1028.31	0.713238
1029.49	0.725937
1030.68	0.745744
1031.86	0.76937
1033.05	0.78896
1034.23	0.803438
1035.42	0.816207
1036.6	0.834071
1037.79	0.848557
1038.97	0.855577
1040.16	0.86297
1041.34	0.870106
1042.53	0.874225
1043.71	0.874901
1044.9	0.873236
1046.08	0.866883
1047.27	0.860372
1048.45	0.851272
1049.64	0.841366
1050.82	0.829783
1052.01	0.811132
1053.19	0.789477
1054.38	0.773879
1055.56	0.749653
1056.75	0.731227
1057.93	0.710001
1059.12	0.686971
1060.3	0.663251
1061.49	0.644953
1062.67	0.621712
1063.86	0.602716
1065.04	0.586901
1066.23	0.570661
1067.41	0.549431
1068.6	0.51916
1069.78	0.510287
1070.97	0.505187
1072.15	0.491229
1073.34	0.484151
1074.52	0.475462
1075.71	0.468775
1076.89	0.466911
1078.08	0.46401
1079.26	0.455387
1080.45	0.446197
1081.63	0.433228
1082.82	0.427197
1084	0.431634
1085.19	0.424819
1086.37	0.427124
1087.56	0.416466
1088.74	0.411313
1089.93	0.40162
1091.11	0.394782
1092.3	0.392328
1093.48	0.391083
1094.67	0.387959
1095.85	0.390334
1097.04	0.389995
1098.22	0.396839
1099.41	0.403662
1100.59	0.403986
1101.78	0.391321
1102.96	0.381975
1104.15	0.379692
1105.33	0.372317
1106.52	0.351518
1107.7	0.354753
1108.89	0.351549
1110.07	0.338031
1111.26	0.319754
1112.44	0.299924
1113.63	0.280443
1114.81	0.254858
1116	0.215765
1117.18	0.195478
1118.37	0.163188
1119.55	0.15132
1120.74	0.134966
1121.92	0.10461
1123.11	0.0830598
1124.29	0.0744836
1125.48	0.062228
1126.66	0.0421369
1127.85	0.028061
1129.03	0.0340815
1130.22	0.0287973
1131.4	0.011515
1132.59	0.0107322
1133.77	0.0180284
1134.96	0.0158956
1136.14	0.0236674
1137.33	0.0170911
1138.51	0.0133819
1139.7	0.0254643
1140.88	0.0286363
1142.07	0.0338503
1143.25	0.0254174
1144.44	0.0283894
1145.62	0.0256641
1146.81	0.0214115
1147.99	0.023499
1149.18	0.0289969
1150.36	0.0291691
1151.55	0.0302222
1152.73	0.0243625
1153.92	0.0170328
1155.1	0.0160653
1156.29	0.0200767
1157.47	0.020229
1158.66	0.025607
1159.84	0.0248224
1161.03	0.0246641
1162.21	0.0241123
1163.4	0.0290311
1164.58	0.0241878
1165.77	0.0164588
1166.95	0.0129691
1168.14	0.00930365
1169.32	0.00894078
1170.51	0.0109617
1171.69	0.0110589
1172.88	0.0108213
1174.06	0.0106853
1175.25	0.0157277
1176.43	0.0137984
1177.62	0.00967987
1178.8	0.0109291
1179.99	0.0117276
1181.17	0.013187
1182.36	0.0170532
1183.54	0.0217788
1184.73	0.0259178
1185.91	0.0347839
1187.1	0.03539
1188.28	0.0409244
1189.47	0.0465022
1190.65	0.050755
1191.84	0.0500028
1193.02	0.045319
1194.21	0.0482351
1195.39	0.0526274
1196.58	0.0535142
1197.76	0.054593
1198.95	0.0569755
1200.13	0.0564226
1201.32	0.0594658
1202.5	0.0614319
1203.69	0.0595773
1204.87	0.0621491
1206.06	0.0638504
1207.24	0.0733957
1208.43	0.0843023
1209.61	0.083039
1210.8	0.0838744
1211.98	0.082378
1213.17	0.0855047
1214.35	0.0912362
1215.54	0.0970874
1216.72	0.107357
1217.91	0.120637
1219.09	0.136635
1220.28	0.139499
1221.46	0.145542
1222.65	0.143627
1223.83	0.158024
1225.02	0.169038
1226.2	0.177604
1227.39	0.197211
1228.57	0.212887
1229.76	0.22508
1230.94	0.227431
1232.13	0.234601
1233.31	0.242763
1234.5	0.248272
1235.68	0.255272
1236.87	0.258615
1238.05	0.27085
1239.24	0.283919
1240.42	0.296106
1241.61	0.286989
1242.79	0.283735
1243.98	0.28266
1245.16	0.282008
1246.35	0.276494
1247.53	0.282456
1248.72	0.2919
1249.9	0.29617
1251.09	0.298358
1252.27	0.293847
1253.46	0.290313
1254.64	0.2923
1255.83	0.29839
1257.01	0.304634
1258.2	0.308107
1259.38	0.306936
1260.57	0.309795
1261.75	0.310698
1262.94	0.313445
1264.12	0.323714
1265.31	0.320798
1266.49	0.314972
1267.68	0.311711
1268.86	0.312309
1270.05	0.311899
1271.23	0.307425
1272.42	0.296828
1273.6	0.291943
1274.79	0.280178
1275.97	0.280909
1277.16	0.274093
1278.34	0.261172
1279.53	0.262996
1280.71	0.254366
1281.9	0.251085
1283.08	0.262476
1284.27	0.271114
1285.45	0.270567
1286.64	0.260006
1287.82	0.267938
1289.01	0.279111
1290.19	0.290619
1291.38	0.288709
1292.56	0.2911
1293.75	0.297699
1294.93	0.311002
1296.12	0.320486
1297.3	0.327223
1298.49	0.327894
1299.67	0.32281
1300.86	0.31943
1302.04	0.320063
1303.23	0.326498
1304.41	0.331779
1305.6	0.332396
1306.78	0.329352
1307.97	0.332196
1309.15	0.335254
1310.34	0.342439
1311.52	0.33915
1312.71	0.335328
1313.89	0.326687
1315.08	0.318788
1316.26	0.319151
1317.45	0.313734
1318.63	0.304906
1319.82	0.297546
1321	0.29404
1322.19	0.281256
1323.37	0.276231
1324.56	0.266517
1325.74	0.260134
1326.93	0.244215
1328.11	0.235257
1329.3	0.227953
1330.48	0.222672
1331.67	0.22462
1332.85	0.219436
1334.04	0.221558
1335.22	0.226988
1336.41	0.227698
1337.59	0.225413
1338.78	0.222905
1339.96	0.221062
1341.15	0.219802
1342.33	0.221391
1343.52	0.232167
1344.7	0.241661
1345.89	0.244788
1347.07	0.245974
1348.26	0.245878
1349.44	0.252455
1350.63	0.260169
1351.81	0.257097
1353	0.258924
1354.18	0.261899
1355.37	0.263834
1356.55	0.266738
1357.74	0.268415
1358.92	0.270714
1360.11	0.264992
1361.29	0.257304
1362.48	0.251923
1363.66	0.238905
1364.85	0.237118
1366.03	0.227196
1367.22	0.213027
1368.4	0.197328
1369.59	0.194918
1370.77	0.183082
1371.96	0.179955
1373.14	0.176716
1374.33	0.172954
1375.51	0.166638
1376.7	0.155077
1377.88	0.153081
1379.07	0.151205
1380.25	0.155209
1381.44	0.161143
1382.62	0.165911
1383.81	0.16606
1384.99	0.17071
1386.18	0.185217
1387.36	0.193585
1388.55	0.188911
1389.73	0.191702
1390.92	0.196477
1392.1	0.193615
1393.29	0.209626
1394.47	0.204335
1395.66	0.206385
1396.84	0.21322
1398.03	0.216554
1399.21	0.213379
1400.4	0.216005
1401.58	0.217734
1402.77	0.208008
1403.95	0.196775
1405.14	0.198853
1406.32	0.199738
1407.51	0.193681
1408.69	0.192928
1409.88	0.190404
1411.06	0.187728
1412.25	0.182812
1413.43	0.175543
1414.62	0.17477
1415.8	0.18026
1416.99	0.176816
1418.17	0.177576
1419.36	0.176436
1420.54	0.178851
1421.73	0.176614
1422.91	0.17219
1424.1	0.172286
1425.28	0.184256
1426.47	0.190151
1427.65	0.195044
1428.84	0.212639
1430.02	0.225917
1431.21	0.229228
1432.39	0.232528
1433.58	0.245236
1434.76	0.264452
1435.95	0.282414
1437.13	0.309078
1438.32	0.335645
1439.5	0.36019
1440.69	0.385371
1441.87	0.410258
1443.06	0.42562
1444.24	0.452556
1445.43	0.464668
1446.61	0.481441
1447.8	0.504368
1448.98	0.531298
1450.17	0.553848
1451.35	0.561407
1452.54	0.576046
1453.72	0.591308
1454.91	0.596021
1456.09	0.600356
1457.28	0.606638
1458.46	0.600982
1459.65	0.595199
1460.83	0.590997
1462.02	0.58855
1463.2	0.579773
1464.39	0.573528
1465.57	0.552891
1466.76	0.516214
1467.94	0.500611
1469.13	0.465186
1470.31	0.434524
1471.5	0.399237
1472.68	0.372927
1473.87	0.337205
1475.05	0.304311
1476.24	0.280758
1477.42	0.251268
1478.61	0.219606
1479.79	0.188826
1480.98	0.164625
1482.16	0.149517
1483.35	0.140128
1484.53	0.126073
1485.72	0.114296
1486.9	0.106198
1488.09	0.093406
1489.27	0.0804613
1490.46	0.070075
1491.64	0.0675973
1492.83	0.0553737
1494.01	0.0506706
1495.2	0.0534555
1496.38	0.0551513
1497.57	0.0601243
1498.75	0.048464
1499.94	0.0394107
1501.12	0.038879
1502.31	0.0421418
1503.49	0.0408859
1504.68	0.0355746
1505.86	0.0364179
1507.05	0.0367298
1508.23	0.0368071
1509.42	0.0430617
1510.6	0.037851
1511.79	0.031809
1512.97	0.0306694
1514.16	0.0224422
1515.34	0.0153735
1516.53	0.0148723
1517.71	0.00880654
1518.9	0.00829984
1520.08	0.00616157
1521.27	0.00502239
1522.45	0.00617504
1523.64	0.0099826
1524.82	0.00810958
1526.01	0.00100144
1527.19	-0.000589558
1528.38	0.0109974
1529.56	0.00793419
1530.75	0.00436016
1531.93	0.00525653
1533.12	0.0106198
1534.3	0.00978923
1535.49	0.00998969
1536.67	0.00975417
1537.86	0.0117129
1539.04	0.0116353
1540.23	0.00824647
1541.41	0.00477953
1542.6	0.00837295
1543.78	0.0121235
1544.97	0.00674097
1546.15	0.00886552
1547.34	0.0113316
1548.52	0.0145532
1549.71	0.015239
1550.89	0.0212534
1552.08	0.0181764
1553.26	0.0167638
1554.45	0.0149781
1555.63	0.0132706
1556.82	0.0166311
1558	0.019735
1559.19	0.0195058
1560.37	0.0144269
1561.56	0.0118747
1562.74	0.0103108
1563.93	0.0100647
1565.11	0.00767589
1566.3	0.00377944
1567.48	0.00121547
1568.67	0.00114094
1569.85	-0.00240643
1571.04	0.00282339
1572.22	0.0050099
1573.41	0.0022246
1574.59	0.00345193
1575.78	0.00690392
1576.96	0.0118771
1578.15	0.0136753
1579.33	0.0138599
1580.52	0.0116948
1581.7	0.0110535
1582.89	0.0121401
1584.07	0.0131561
1585.26	0.0210819
1586.44	0.0283339
1587.63	0.0254514
1588.81	0.025105
1590	0.0291743
1591.18	0.0338236
1592.37	0.0381855
1593.55	0.0410777
1594.74	0.0399625
1595.92	0.0460733
1597.11	0.0558576
1598.29	0.0607004
1599.48	0.0611335
1600.66	0.0642104
1601.85	0.0584273
1603.03	0.0578809
1604.22	0.0634349
1605.4	0.0670667
1606.59	0.0675808
1607.77	0.0669497
1608.96	0.0639277
1610.14	0.0630124
1611.33	0.0647495
1612.51	0.0584339
1613.7	0.0560418
1614.88	0.0575523
1616.07	0.0619996
1617.25	0.0609013
1618.44	0.0644786
1619.62	0.0658034
1620.81	0.0668398
1621.99	0.0678829
1623.18	0.0688083
1624.36	0.0689533
1625.55	0.0698721
1626.73	0.076564
1627.92	0.084419
1629.1	0.0894886
1630.29	0.091718
1631.47	0.0970162
1632.66	0.098769
1633.84	0.104467
1635.03	0.109566
1636.21	0.117799
1637.4	0.113998
1638.58	0.11712
1639.77	0.11631
1640.95	0.125104
1642.14	0.129085
1643.32	0.126324
1644.51	0.123899
1645.69	0.12553
1646.88	0.124452
1648.06	0.12363
1649.25	0.128371
1650.43	0.12699
1651.62	0.125117
1652.8	0.119906
1653.99	0.128041
1655.17	0.126
1656.36	0.137095
1657.54	0.143005
1658.73	0.143406
1659.91	0.147535
1661.1	0.152132
1662.28	0.152621
1663.47	0.158776
1664.65	0.163678
1665.84	0.170858
1667.02	0.176147
1668.21	0.184192
1669.39	0.186987
1670.58	0.188555
1671.76	0.185955
1672.95	0.178036
1674.13	0.165393
1675.32	0.16735
1676.5	0.166079
1677.69	0.170435
1678.87	0.173179
1680.06	0.166915
1681.24	0.166357
1682.43	0.163766
1683.61	0.162124
1684.8	0.154104
1685.98	0.156993
1687.17	0.156302
1688.35	0.157139
1689.54	0.154704
1690.72	0.157653
1691.91	0.160173
1693.09	0.159526
1694.28	0.152244
1695.46	0.151577
1696.65	0.149882
1697.83	0.150426
1699.02	0.146191
1700.2	0.143329
1701.39	0.1465
1702.57	0.14356
1703.76	0.14244
1704.94	0.146092
1706.13	0.14659
1707.31	0.14354
1708.5	0.135757
1709.68	0.136086
1710.87	0.14037
1712.05	0.140844
1713.24	0.143848
1714.42	0.135413
1715.61	0.138561
1716.79	0.140841
1717.98	0.139077
1719.16	0.138595
1720.35	0.137963
1721.53	0.138551
1722.72	0.144586
1723.9	0.14847
1725.09	0.152783
1726.27	0.151374
1727.46	0.147311
1728.64	0.14855
1729.83	0.157056
1731.01	0.158237
1732.2	0.155503
1733.38	0.155259
1734.57	0.15121
1735.75	0.149263
1736.94	0.151095
1738.12	0.153471
1739.31	0.150166
1740.49	0.149525
1741.68	0.144049
1742.86	0.145998
1744.05	0.147834
1745.23	0.143349
1746.42	0.13924
1747.6	0.136533
1748.79	0.132483
1749.97	0.132269
1751.16	0.132944
1752.34	0.131081
1753.53	0.126535
1754.71	0.126285
1755.9	0.118588
1757.08	0.121573
1758.27	0.125335
1759.45	0.122477
1760.64	0.117831
1761.82	0.111216
1763.01	0.107385
1764.19	0.108373
1765.38	0.10608
1766.56	0.101314
1767.75	0.102731
1768.93	0.101804
1770.12	0.0970649
1771.3	0.0904807
1772.49	0.0889988
1773.67	0.0786434
1774.86	0.0733056
1776.04	0.0719442
1777.23	0.0693155
1778.41	0.0657667
1779.6	0.0607627
1780.78	0.0614144
1781.97	0.0599353
1783.15	0.0585069
1784.34	0.054512
1785.52	0.0487437
1786.71	0.0479453
1787.89	0.0448163
1789.08	0.0356132
1790.26	0.0274783
1791.45	0.0206543
1792.63	0.0130088
1793.82	0.00900939
1795	-0.00220389
