405	0.424026
406.185	0.430838
407.37	0.44118
408.555	0.451037
409.74	0.45628
410.925	0.45478
412.11	0.447476
413.295	0.438329
414.48	0.430624
415.665	0.422849
416.85	0.415081
418.035	0.402057
419.22	0.392489
420.405	0.388117
421.59	0.368802
422.775	0.353352
423.96	0.328578
425.145	0.291273
426.33	0.261098
427.515	0.236459
428.7	0.208037
429.885	0.198301
431.07	0.181701
432.255	0.15773
433.44	0.135507
434.625	0.12001
435.81	0.108696
436.995	0.0859063
438.18	0.0563533
439.365	0.036311
440.55	0.00960589
441.735	0.00784074
442.92	-0.00981875
444.105	-0.0105657
445.29	-0.00589005
446.475	0.00179553
447.66	0.0114968
448.845	0.0115588
450.03	0.00976533
451.215	0.0128523
452.4	0.0113536
453.585	0.0178304
454.77	0.0238409
455.955	0.0441299
457.14	0.0770711
458.325	0.106392
459.51	0.145732
460.695	0.182658
461.88	0.210095
463.065	0.240393
464.25	0.280723
465.435	0.318704
466.62	0.35084
467.805	0.391062
468.99	0.435629
470.175	0.476679
471.36	0.534514
472.545	0.587474
473.73	0.637202
474.915	0.674486
476.1	0.705515
477.285	0.743574
478.47	0.783556
479.655	0.814088
480.84	0.847163
482.025	0.900044
483.21	0.917119
484.395	0.925163
485.58	0.939911
486.765	0.948225
487.95	0.939115
489.135	0.92932
490.32	0.919288
491.505	0.891975
492.69	0.857255
493.875	0.831893
495.06	0.817456
496.245	0.796899
497.43	0.75233
498.615	0.708802
499.8	0.670285
500.985	0.61798
502.17	0.565441
503.355	0.522068
504.54	0.482187
505.725	0.441462
506.91	0.403665
508.095	0.389445
509.28	0.368994
510.465	0.359541
511.65	0.353369
512.835	0.332402
514.02	0.305429
515.205	0.278242
516.39	0.257962
517.575	0.255196
518.76	0.267617
519.945	0.275804
521.13	0.270835
522.315	0.270976
523.5	0.267066
524.685	0.255621
525.87	0.264278
527.055	0.252066
528.24	0.236173
529.425	0.232513
530.61	0.235413
531.795	0.242099
532.98	0.249674
534.165	0.25403
535.35	0.261829
536.535	0.265241
537.72	0.257424
538.905	0.23118
540.09	0.22531
541.275	0.234079
542.46	0.237053
543.644	0.236709
544.829	0.238235
546.014	0.248751
547.199	0.260585
548.384	0.261851
549.569	0.257902
550.754	0.252836
551.939	0.238678
553.124	0.243725
554.309	0.248266
555.494	0.249148
556.679	0.233949
557.865	0.223893
559.049	0.226955
560.234	0.22281
561.419	0.20878
562.604	0.204031
563.789	0.209264
564.974	0.204826
566.159	0.20104
567.344	0.206574
568.529	0.205586
569.714	0.20021
570.899	0.211808
572.084	0.212308
573.269	0.204701
574.454	0.189688
575.639	0.184223
576.824	0.183538
578.009	0.179779
579.194	0.180991
580.379	0.189169
581.564	0.19309
582.749	0.183784
583.934	0.17668
585.119	0.168859
586.304	0.155336
587.489	0.148159
588.674	0.145865
589.859	0.143234
591.044	0.133982
592.229	0.128885
593.414	0.131818
594.599	0.134177
595.784	0.133865
596.969	0.133735
598.154	0.126926
599.339	0.116617
600.524	0.113212
601.709	0.121285
602.894	0.107998
604.079	0.097341
605.264	0.097153
606.449	0.0946289
607.634	0.0803422
608.819	0.0578713
610.004	0.0484279
611.189	0.0479768
612.374	0.0362304
613.559	0.0344089
614.744	0.0385821
615.929	0.0329647
617.114	0.0273097
618.299	0.0320894
619.484	0.0324391
620.669	0.0119717
621.854	0.00126128
623.039	0.00420649
624.224	-0.000590494
625.409	-0.00178446
626.594	0.0101921
627.779	0.0249889
628.964	0.0308314
630.149	0.0321048
631.334	0.0489706
632.519	0.0466585
633.704	0.041672
634.889	0.0357676
636.074	0.0530723
637.259	0.0409509
638.444	0.043436
639.629	0.0458901
640.814	0.0580994
641.999	0.0678024
643.184	0.0770097
644.369	0.0800944
645.554	0.078519
646.739	0.0837067
647.924	0.0817317
649.109	0.0771326
650.294	0.0727427
651.479	0.0879318
652.664	0.0821468
653.849	0.106024
655.034	0.110794
656.219	0.119613
657.404	0.126307
658.589	0.134609
659.774	0.137225
660.959	0.134259
662.144	0.135615
663.329	0.139825
664.514	0.137121
665.699	0.13851
666.884	0.158482
668.069	0.161265
669.254	0.161759
670.439	0.154296
671.624	0.178069
672.809	0.162698
673.994	0.154489
675.179	0.151757
676.364	0.146224
677.549	0.147365
678.734	0.145281
679.919	0.148048
681.104	0.147464
682.289	0.143669
683.474	0.1452
684.659	0.135291
685.844	0.124965
687.029	0.135484
688.214	0.12907
689.399	0.126865
690.584	0.110835
691.769	0.121244
692.954	0.125666
694.139	0.119302
695.324	0.126211
696.509	0.120762
697.694	0.111953
698.879	0.103626
700.064	0.0958456
701.249	0.0938719
702.434	0.0951333
703.619	0.099028
704.804	0.105345
705.989	0.0949172
707.174	0.093125
708.359	0.0877579
709.544	0.0950211
710.729	0.0828475
711.914	0.0794383
713.099	0.0870364
714.284	0.0809768
715.469	0.0768564
716.654	0.0792286
717.839	0.0908447
719.024	0.095589
720.209	0.0919169
721.394	0.0949113
722.579	0.0941048
723.764	0.0856799
724.949	0.0898503
726.134	0.0952795
727.319	0.0992846
728.504	0.100696
729.689	0.102422
730.874	0.103478
732.059	0.0980473
733.244	0.102961
734.429	0.114453
735.614	0.135059
736.799	0.127606
737.984	0.119054
739.169	0.115202
740.354	0.115639
741.539	0.120532
742.724	0.118766
743.909	0.111676
745.094	0.11447
746.279	0.116898
747.464	0.105681
748.649	0.102859
749.834	0.0930612
751.019	0.0894969
752.204	0.0730166
753.389	0.0692502
754.574	0.0426978
755.759	0.0363736
756.944	0.0369195
758.129	0.03297
759.314	0.0232253
760.499	0.0205775
761.684	0.0269683
762.869	0.025671
764.054	0.0113768
765.239	0.00970944
766.424	0.0152408
767.609	0.0202224
768.794	0.0273633
769.979	0.0254886
771.164	0.0238806
772.349	0.0241784
773.534	0.0305998
774.719	0.033431
775.904	0.0310046
777.089	0.0261967
778.274	0.0327035
779.459	0.0295723
780.644	0.0229931
781.829	0.0278537
783.014	0.036929
784.199	0.0290528
785.384	0.0221229
786.569	0.00958192
787.754	0.00831846
788.939	0.0118572
790.124	0.0122904
791.309	0.0125644
792.494	0.0181178
793.679	0.0331414
794.864	0.0532408
796.049	0.0695826
797.234	0.0788089
798.419	0.0944427
799.604	0.115519
800.789	0.134829
801.974	0.166935
803.159	0.202961
804.344	0.229068
805.529	0.272678
806.714	0.305734
807.899	0.340911
809.084	0.362043
810.269	0.372074
811.454	0.378538
812.639	0.389728
813.824	0.388798
815.009	0.393233
816.194	0.39677
817.379	0.391667
818.564	0.39242
819.748	0.391892
820.933	0.381518
822.118	0.382056
823.303	0.39134
824.488	0.393004
825.673	0.409451
826.858	0.437662
828.043	0.470918
829.228	0.50657
830.413	0.545822
831.598	0.575281
832.784	0.621108
833.969	0.660806
835.154	0.702648
836.339	0.751
837.523	0.777389
838.708	0.816796
839.893	0.842297
841.078	0.855561
842.263	0.874849
843.448	0.884989
844.633	0.885949
845.818	0.887659
847.003	0.890535
848.188	0.882434
849.373	0.862078
850.558	0.842189
851.743	0.818314
852.928	0.79109
854.113	0.76972
855.298	0.74282
856.483	0.718438
857.668	0.672303
858.853	0.652237
860.038	0.630799
861.223	0.591422
862.408	0.556571
863.593	0.524072
864.778	0.484699
865.963	0.44561
867.148	0.418881
868.333	0.396268
869.518	0.383451
870.703	0.356816
871.888	0.333063
873.073	0.306806
874.258	0.28125
875.443	0.274604
876.628	0.27123
877.813	0.256853
878.998	0.242108
880.183	0.237701
881.368	0.236869
882.553	0.230209
883.738	0.228524
884.923	0.238706
886.108	0.246242
887.293	0.252812
888.478	0.262659
889.663	0.280323
890.848	0.283537
892.033	0.302911
893.218	0.319541
894.403	0.335701
895.588	0.348206
896.773	0.370443
897.958	0.397086
899.143	0.422452
900.328	0.430214
901.513	0.451136
902.698	0.465747
903.883	0.475552
905.068	0.492872
906.253	0.500086
907.438	0.504494
908.623	0.521487
909.808	0.539478
910.993	0.544168
912.178	0.542483
913.363	0.54045
914.548	0.544673
915.733	0.540162
916.918	0.521068
918.103	0.506061
919.288	0.496483
920.473	0.487098
921.658	0.484123
922.843	0.476863
924.028	0.457198
925.213	0.435022
926.398	0.405159
927.583	0.374545
928.768	0.336488
929.953	0.31712
931.138	0.293101
932.323	0.272529
933.508	0.252141
934.693	0.231283
935.878	0.226745
937.063	0.21629
938.248	0.20939
939.433	0.190593
940.618	0.168309
941.803	0.156284
942.988	0.146087
944.173	0.160617
945.358	0.16314
946.543	0.169218
947.728	0.177551
948.913	0.179578
950.098	0.187947
951.283	0.177645
952.468	0.185567
953.653	0.188197
954.838	0.178518
956.023	0.187669
957.208	0.19699
958.393	0.205522
959.578	0.211413
960.763	0.219112
961.948	0.221811
963.133	0.221057
964.318	0.22664
965.503	0.229134
966.688	0.224582
967.873	0.217258
969.058	0.220468
970.243	0.229461
971.428	0.220197
972.613	0.220028
973.798	0.223391
974.983	0.206467
976.168	0.203346
977.353	0.200595
978.538	0.204872
979.723	0.202583
980.908	0.205388
982.093	0.201283
983.278	0.204088
984.463	0.210797
985.648	0.227885
986.833	0.238537
988.018	0.241913
989.203	0.243167
990.388	0.249275
991.573	0.244617
992.758	0.24963
993.943	0.250555
995.128	0.240858
996.313	0.23891
997.498	0.243833
998.683	0.240353
999.868	0.238931
1001.05	0.232156
1002.24	0.235905
1003.42	0.232807
1004.61	0.243097
1005.79	0.240943
1006.98	0.246651
1008.16	0.258331
1009.35	0.265828
1010.53	0.274401
1011.72	0.285358
1012.9	0.31454
1014.09	0.347363
1015.27	0.364014
1016.46	0.378235
1017.64	0.39461
1018.83	0.42202
1020.01	0.43809
1021.2	0.456658
1022.38	0.472889
1023.57	0.494453
1024.75	0.517942
1025.94	0.545297
1027.12	0.584969
1028.31	0.622235
1029.49	0.654398
1030.68	0.680906
1031.86	0.693983
1033.05	0.710292
1034.23	0.736904
1035.42	0.758437
1036.6	0.772108
1037.79	0.794093
1038.97	0.825397
1040.16	0.83793
1041.34	0.835478
1042.53	0.835489
1043.71	0.831079
1044.9	0.819263
1046.08	0.805272
1047.27	0.798229
1048.45	0.780852
1049.64	0.768325
1050.82	0.767112
1052.01	0.756831
1053.19	0.739406
1054.38	0.736376
1055.56	0.715023
1056.75	0.678929
1057.93	0.646551
1059.12	0.634207
1060.3	0.615921
1061.49	0.603808
1062.67	0.583133
1063.86	0.56254
1065.04	0.536512
1066.23	0.521184
1067.41	0.497346
1068.6	0.466791
1069.78	0.445569
1070.97	0.442271
1072.15	0.419321
1073.34	0.400166
1074.52	0.39305
1075.71	0.392897
1076.89	0.381594
1078.08	0.373715
1079.26	0.374432
1080.45	0.376447
1081.63	0.379645
1082.82	0.385057
1084	0.383419
1085.19	0.381553
1086.37	0.378272
1087.56	0.374561
1088.74	0.368393
1089.93	0.369445
1091.11	0.36826
1092.3	0.366593
1093.48	0.358901
1094.67	0.361767
1095.85	0.362927
1097.04	0.359812
1098.22	0.355613
1099.41	0.351815
1100.59	0.341895
1101.78	0.355302
1102.96	0.361944
1104.15	0.37524
1105.33	0.371327
1106.52	0.350849
1107.7	0.337351
1108.89	0.336634
1110.07	0.324411
1111.26	0.3183
1112.44	0.302951
1113.63	0.277059
1114.81	0.266691
1116	0.24028
1117.18	0.218846
1118.37	0.20578
1119.55	0.159865
1120.74	0.137489
1121.92	0.0996516
1123.11	0.0872438
1124.29	0.0772509
1125.48	0.0729877
1126.66	0.0605696
1127.85	0.0542474
1129.03	0.0301671
1130.22	0.0234638
1131.4	0.0291339
1132.59	0.0142768
1133.77	0.0119142
1134.96	0.01438
1136.14	0.000769859
1137.33	0.00381646
1138.51	0.00845319
1139.7	0.0217739
1140.88	0.0236805
1142.07	0.0309444
1143.25	0.0239656
1144.44	0.0296475
1145.62	0.0219464
1146.81	0.0265572
1147.99	0.0244478
1149.18	0.0301821
1150.36	0.028215
1151.55	0.0291329
1152.73	0.0353298
1153.92	0.0503124
1155.1	0.0447534
1156.29	0.0338203
1157.47	0.0249845
1158.66	0.0210382
1159.84	0.0128745
1161.03	0.00797454
1162.21	0.00121362
1163.4	0.0166408
1164.58	0.0248558
1165.77	0.0283839
1166.95	0.0277768
1168.14	0.0343142
1169.32	0.0303992
1170.51	0.030267
1171.69	0.031649
1172.88	0.0405754
1174.06	0.0474706
1175.25	0.0523256
1176.43	0.0567806
1177.62	0.0619658
1178.8	0.0582834
1179.99	0.0569011
1181.17	0.053854
1182.36	0.0566131
1183.54	0.0597558
1184.73	0.0563482
1185.91	0.0640328
1187.1	0.0679863
1188.28	0.0643485
1189.47	0.0658009
1190.65	0.0666242
1191.84	0.0639775
1193.02	0.0574773
1194.21	0.0514355
1195.39	0.0572457
1196.58	0.0709597
1197.76	0.0770718
1198.95	0.0763527
1200.13	0.071419
1201.32	0.0794561
1202.5	0.0787009
1203.69	0.0710977
1204.87	0.0700167
1206.06	0.0633016
1207.24	0.06497
1208.43	0.0785533
1209.61	0.101146
1210.8	0.122414
1211.98	0.142761
1213.17	0.143719
1214.35	0.150631
1215.54	0.156612
1216.72	0.169196
1217.91	0.193009
1219.09	0.206461
1220.28	0.228054
1221.46	0.237547
1222.65	0.248302
1223.83	0.265535
1225.02	0.274766
1226.2	0.276069
1227.39	0.269067
1228.57	0.27665
1229.76	0.280421
1230.94	0.289871
1232.13	0.276486
1233.31	0.286663
1234.5	0.29152
1235.68	0.278433
1236.87	0.266921
1238.05	0.26099
1239.24	0.262432
1240.42	0.270236
1241.61	0.26979
1242.79	0.273396
1243.98	0.273156
1245.16	0.268573
1246.35	0.264844
1247.53	0.268218
1248.72	0.281156
1249.9	0.297712
1251.09	0.297522
1252.27	0.310478
1253.46	0.313539
1254.64	0.320751
1255.83	0.336412
1257.01	0.342296
1258.2	0.330273
1259.38	0.325968
1260.57	0.325532
1261.75	0.329936
1262.94	0.332608
1264.12	0.327726
1265.31	0.316816
1266.49	0.308537
1267.68	0.303262
1268.86	0.290225
1270.05	0.279432
1271.23	0.277575
1272.42	0.267929
1273.6	0.254074
1274.79	0.260266
1275.97	0.268164
1277.16	0.267519
1278.34	0.266793
1279.53	0.270077
1280.71	0.272598
1281.9	0.275749
1283.08	0.285571
1284.27	0.280091
1285.45	0.291985
1286.64	0.290918
1287.82	0.293739
1289.01	0.29445
1290.19	0.30357
1291.38	0.310481
1292.56	0.312266
1293.75	0.313884
1294.93	0.318956
1296.12	0.318742
1297.3	0.315437
1298.49	0.307155
1299.67	0.306154
1300.86	0.314723
1302.04	0.320646
1303.23	0.32063
1304.41	0.31498
1305.6	0.320112
1306.78	0.328992
1307.97	0.333759
1309.15	0.336311
1310.34	0.333885
1311.52	0.330169
1312.71	0.328573
1313.89	0.332353
1315.08	0.341842
1316.26	0.349118
1317.45	0.34135
1318.63	0.33686
1319.82	0.328228
1321	0.334102
1322.19	0.333392
1323.37	0.328214
1324.56	0.320838
1325.74	0.315713
1326.93	0.314894
1328.11	0.325014
1329.3	0.317261
1330.48	0.32727
1331.67	0.305875
1332.85	0.301715
1334.04	0.298682
1335.22	0.306395
1336.41	0.306472
1337.59	0.31112
1338.78	0.309761
1339.96	0.305773
1341.15	0.301091
1342.33	0.302995
1343.52	0.302773
1344.7	0.306288
1345.89	0.316817
1347.07	0.315783
1348.26	0.313783
1349.44	0.323868
1350.63	0.33383
1351.81	0.339913
1353	0.331249
1354.18	0.316308
1355.37	0.306795
1356.55	0.30499
1357.74	0.307919
1358.92	0.316137
1360.11	0.316254
1361.29	0.313368
1362.48	0.298869
1363.66	0.293167
1364.85	0.291505
1366.03	0.283546
1367.22	0.277586
1368.4	0.259068
1369.59	0.256163
1370.77	0.266122
1371.96	0.269585
1373.14	0.269563
1374.33	0.272179
1375.51	0.263512
1376.7	0.253967
1377.88	0.242738
1379.07	0.231557
1380.25	0.229986
1381.44	0.230914
1382.62	0.229706
1383.81	0.222893
1384.99	0.218907
1386.18	0.22502
1387.36	0.220648
1388.55	0.222292
1389.73	0.215016
1390.92	0.209797
1392.1	0.209875
1393.29	0.200497
1394.47	0.203736
1395.66	0.217392
1396.84	0.219759
1398.03	0.216748
1399.21	0.216167
1400.4	0.224303
1401.58	0.229574
1402.77	0.239892
1403.95	0.244745
1405.14	0.245512
1406.32	0.252245
1407.51	0.264007
1408.69	0.266476
1409.88	0.269589
1411.06	0.270094
1412.25	0.268454
1413.43	0.26795
1414.62	0.25971
1415.8	0.26099
1416.99	0.255019
1418.17	0.250602
1419.36	0.247165
1420.54	0.239659
1421.73	0.241071
1422.91	0.248069
1424.1	0.252341
1425.28	0.246822
1426.47	0.248503
1427.65	0.243741
1428.84	0.255918
1430.02	0.271968
1431.21	0.285219
1432.39	0.29621
1433.58	0.308405
1434.76	0.323951
1435.95	0.336086
1437.13	0.348263
1438.32	0.362969
1439.5	0.370948
1440.69	0.384887
1441.87	0.408186
1443.06	0.431709
1444.24	0.462319
1445.43	0.47096
1446.61	0.481938
1447.8	0.497284
1448.98	0.509268
1450.17	0.529053
1451.35	0.540026
1452.54	0.556793
1453.72	0.563595
1454.91	0.573056
1456.09	0.579299
1457.28	0.582079
1458.46	0.576342
1459.65	0.560924
1460.83	0.544987
1462.02	0.534336
1463.2	0.523206
1464.39	0.504538
1465.57	0.490258
1466.76	0.477949
1467.94	0.465988
1469.13	0.42874
1470.31	0.41394
1471.5	0.384388
1472.68	0.352474
1473.87	0.321856
1475.05	0.302223
1476.24	0.288231
1477.42	0.270763
1478.61	0.249569
1479.79	0.223699
1480.98	0.200002
1482.16	0.187949
1483.35	0.16943
1484.53	0.147372
1485.72	0.146958
1486.9	0.135123
1488.09	0.113646
1489.27	0.108139
1490.46	0.101952
1491.64	0.100703
1492.83	0.104901
1494.01	0.108842
1495.2	0.112331
1496.38	0.112784
1497.57	0.113732
1498.75	0.112394
1499.94	0.110948
1501.12	0.111393
1502.31	0.102939
1503.49	0.0999428
1504.68	0.107661
1505.86	0.113019
1507.05	0.119606
1508.23	0.114636
1509.42	0.0946618
1510.6	0.0825965
1511.79	0.0723829
1512.97	0.0673359
1514.16	0.0747311
1515.34	0.0818123
1516.53	0.0873696
1517.71	0.0819539
1518.9	0.0873899
1520.08	0.0858042
1521.27	0.0807621
1522.45	0.0804543
1523.64	0.0763637
1524.82	0.067847
1526.01	0.0654759
1527.19	0.0705225
1528.38	0.078091
1529.56	0.0795418
1530.75	0.0784058
1531.93	0.0630992
1533.12	0.0537196
1534.3	0.0569379
1535.49	0.0547444
1536.67	0.0510845
1537.86	0.0479889
1539.04	0.0426207
1540.23	0.0352659
1541.41	0.0381387
1542.6	0.0369014
1543.78	0.0352159
1544.97	0.0341256
1546.15	0.0337786
1547.34	0.0247462
1548.52	0.0266661
1549.71	0.0156279
1550.89	0.00721331
1552.08	0.00474719
1553.26	0.00675088
1554.45	0.0089627
1555.63	0.0112415
1556.82	0.0159302
1558	0.0137507
1559.19	0.0157837
1560.37	0.0155902
1561.56	0.0160318
1562.74	0.022705
1563.93	0.0261999
1565.11	0.0331111
1566.3	0.0392521
1567.48	0.039211
1568.67	0.036183
1569.85	0.0356215
1571.04	0.0369454
1572.22	0.0344111
1573.41	0.0354507
1574.59	0.0405532
1575.78	0.0416224
1576.96	0.0381961
1578.15	0.0322648
1579.33	0.0261632
1580.52	0.0216113
1581.7	0.0192279
1582.89	0.0169565
1584.07	0.0211833
1585.26	0.0217693
1586.44	0.0188979
1587.63	0.0192948
1588.81	0.0191462
1590	0.018332
1591.18	0.022953
1592.37	0.0290111
1593.55	0.0358477
1594.74	0.0437764
1595.92	0.0500559
1597.11	0.0588856
1598.29	0.0582498
1599.48	0.0583202
1600.66	0.057701
1601.85	0.0609338
1603.03	0.0681124
1604.22	0.072768
1605.4	0.0773883
1606.59	0.0762553
1607.77	0.0701946
1608.96	0.0680448
1610.14	0.068252
1611.33	0.0679699
1612.51	0.0679812
1613.7	0.0684174
1614.88	0.0702048
1616.07	0.0793715
1617.25	0.0804798
1618.44	0.0815429
1619.62	0.0810498
1620.81	0.0774224
1621.99	0.0794988
1623.18	0.0843036
1624.36	0.0922247
1625.55	0.0886047
1626.73	0.0891225
1627.92	0.086163
1629.1	0.0935121
1630.29	0.0982388
1631.47	0.0978338
1632.66	0.104386
1633.84	0.113875
1635.03	0.122493
1636.21	0.127394
1637.4	0.129875
1638.58	0.141722
1639.77	0.142283
1640.95	0.140566
1642.14	0.15055
1643.32	0.15189
1644.51	0.1468
1645.69	0.141042
1646.88	0.141682
1648.06	0.146788
1649.25	0.145493
1650.43	0.146298
1651.62	0.143274
1652.8	0.147733
1653.99	0.144683
1655.17	0.134879
1656.36	0.13439
1657.54	0.14096
1658.73	0.144524
1659.91	0.152711
1661.1	0.162
1662.28	0.166997
1663.47	0.160945
1664.65	0.161808
1665.84	0.166457
1667.02	0.163285
1668.21	0.169749
1669.39	0.161655
1670.58	0.166122
1671.76	0.165128
1672.95	0.166953
1674.13	0.164122
1675.32	0.158726
1676.5	0.154348
1677.69	0.15175
1678.87	0.150665
1680.06	0.157572
1681.24	0.154781
1682.43	0.148579
1683.61	0.141256
1684.8	0.132327
1685.98	0.137868
1687.17	0.139092
1688.35	0.14478
1689.54	0.139477
1690.72	0.138024
1691.91	0.138113
1693.09	0.137188
1694.28	0.135855
1695.46	0.139731
1696.65	0.134012
1697.83	0.133584
1699.02	0.139495
1700.2	0.142889
1701.39	0.139214
1702.57	0.13667
1703.76	0.134477
1704.94	0.130011
1706.13	0.134513
1707.31	0.134962
1708.5	0.140987
1709.68	0.143539
1710.87	0.141722
1712.05	0.137979
1713.24	0.13975
1714.42	0.138359
1715.61	0.130749
1716.79	0.135963
1717.98	0.14142
1719.16	0.141123
1720.35	0.142073
1721.53	0.140174
1722.72	0.139289
1723.9	0.135047
1725.09	0.131562
1726.27	0.136082
1727.46	0.135523
1728.64	0.135364
1729.83	0.140696
1731.01	0.139892
1732.2	0.144174
1733.38	0.144128
1734.57	0.140382
1735.75	0.141981
1736.94	0.145622
1738.12	0.152228
1739.31	0.146177
1740.49	0.146337
1741.68	0.135482
1742.86	0.128823
1744.05	0.128271
1745.23	0.129889
1746.42	0.127103
1747.6	0.124961
1748.79	0.117794
1749.97	0.113458
1751.16	0.113775
1752.34	0.103624
1753.53	0.0962067
1754.71	0.0912173
1755.9	0.0905279
1757.08	0.0937815
1758.27	0.097096
1759.45	0.093072
1760.64	0.0910452
1761.82	0.089656
1763.01	0.0861727
1764.19	0.086509
1765.38	0.0890059
1766.56	0.0838029
1767.75	0.0822767
1768.93	0.0803292
1770.12	0.0783084
1771.3	0.0773587
1772.49	0.0727446
1773.67	0.0636397
1774.86	0.0564925
1776.04	0.0533234
1777.23	0.0498505
1778.41	0.0426514
1779.6	0.0418268
1780.78	0.0385073
1781.97	0.0355051
1783.15	0.037127
1784.34	0.0365374
1785.52	0.0413212
1786.71	0.034403
1787.89	0.0278548
1789.08	0.0265929
1790.26	0.0216141
1791.45	0.0201057
1792.63	0.0179906
1793.82	0.0100438
1795	0.00221292
