405	0.27641
406.185	0.328394
407.37	0.36331
408.555	0.390735
409.74	0.411445
410.925	0.424262
412.11	0.429858
413.295	0.438311
414.48	0.453414
415.665	0.451445
416.85	0.441198
418.035	0.434829
419.22	0.425618
420.405	0.412099
421.59	0.380233
422.775	0.343027
423.96	0.314166
425.145	0.293319
426.33	0.27039
427.515	0.239808
428.7	0.212139
429.885	0.203516
431.07	0.171547
432.255	0.158584
433.44	0.128481
434.625	0.097789
435.81	0.083982
436.995	0.071142
438.18	0.0508815
439.365	0.0379732
440.55	0.0274818
441.735	0.0290901
442.92	0.0393865
444.105	0.0249345
445.29	0.0141488
446.475	0.012574
447.66	0.0130604
448.845	-0.00111448
450.03	-0.00817561
451.215	0.00289044
452.4	0.0054953
453.585	0.020121
454.77	0.051733
455.955	0.0759122
457.14	0.0952284
458.325	0.116063
459.51	0.138002
460.695	0.160887
461.88	0.183466
463.065	0.218474
464.25	0.265909
465.435	0.305751
466.62	0.3459
467.805	0.385452
468.99	0.452233
470.175	0.494496
471.36	0.539134
472.545	0.589449
473.73	0.633651
474.915	0.660087
476.1	0.693021
477.285	0.744452
478.47	0.793131
479.655	0.840129
480.84	0.871584
482.025	0.893871
483.21	0.915028
484.395	0.94168
485.58	0.945733
486.765	0.948225
487.95	0.947149
489.135	0.938698
490.32	0.922228
491.505	0.893934
492.69	0.855653
493.875	0.825018
495.06	0.810653
496.245	0.765097
497.43	0.721151
498.615	0.677482
499.8	0.643181
500.985	0.610032
502.17	0.567788
503.355	0.517215
504.54	0.474794
505.725	0.450474
506.91	0.424982
508.095	0.39033
509.28	0.376854
510.465	0.346071
511.65	0.346103
512.835	0.338271
514.02	0.331784
515.205	0.31075
516.39	0.285558
517.575	0.270335
518.76	0.261193
519.945	0.251011
521.13	0.245153
522.315	0.248976
523.5	0.248803
524.685	0.249411
525.87	0.242895
527.055	0.236184
528.24	0.231246
529.424	0.234365
530.61	0.229997
531.795	0.220791
532.98	0.215467
534.165	0.218736
535.35	0.24127
536.535	0.247883
537.72	0.236038
538.905	0.228983
540.09	0.235211
541.275	0.232257
542.46	0.233745
543.645	0.232123
544.83	0.232462
546.014	0.236811
547.199	0.239271
548.384	0.243778
549.569	0.255499
550.754	0.254124
551.939	0.253292
553.124	0.254047
554.309	0.256045
555.494	0.259189
556.679	0.254648
557.864	0.256399
559.049	0.253166
560.234	0.246044
561.419	0.242082
562.604	0.236796
563.789	0.230836
564.974	0.230366
566.159	0.21367
567.344	0.216455
568.529	0.207045
569.714	0.203434
570.899	0.192329
572.084	0.184656
573.269	0.180416
574.454	0.168233
575.639	0.175023
576.824	0.184868
578.009	0.179123
579.194	0.177983
580.379	0.18874
581.564	0.19351
582.749	0.207071
583.934	0.194934
585.119	0.209229
586.304	0.194075
587.489	0.190619
588.674	0.20039
589.859	0.213411
591.044	0.215909
592.229	0.213817
593.414	0.212939
594.599	0.203851
595.784	0.188492
596.969	0.184219
598.154	0.169966
599.339	0.156164
600.524	0.132
601.709	0.122065
602.894	0.127164
604.079	0.136626
605.264	0.136395
606.449	0.1352
607.634	0.134266
608.819	0.126599
610.004	0.116719
611.189	0.106099
612.374	0.0952193
613.559	0.101673
614.744	0.106226
615.929	0.0962351
617.114	0.101461
618.299	0.094149
619.484	0.0969463
620.669	0.0980153
621.854	0.0897201
623.039	0.0640928
624.224	0.0477171
625.409	0.0307767
626.594	0.010794
627.779	0.00113918
628.964	-0.00131957
630.149	-0.00212439
631.334	0.000274832
632.519	-0.00940352
633.704	-0.00237621
634.889	0.00511778
636.074	0.0114993
637.259	0.0209149
638.444	0.0382966
639.629	0.0363852
640.814	0.0279432
641.999	0.0361056
643.184	0.0527585
644.369	0.0668172
645.554	0.0760954
646.739	0.080588
647.924	0.0873066
649.109	0.0955497
650.294	0.107684
651.479	0.124228
652.664	0.118522
653.849	0.125254
655.034	0.140146
656.219	0.137814
657.404	0.126657
658.589	0.124684
659.774	0.142487
660.959	0.165898
662.144	0.184404
663.329	0.197979
664.514	0.205587
665.699	0.20975
666.884	0.217918
668.069	0.227591
669.254	0.227237
670.439	0.225206
671.624	0.231592
672.809	0.226228
673.994	0.226499
675.179	0.229709
676.364	0.241355
677.549	0.250642
678.734	0.242216
679.919	0.22224
681.104	0.198587
682.289	0.179055
683.474	0.174879
684.659	0.178382
685.844	0.167891
687.029	0.151315
688.214	0.142398
689.399	0.139829
690.584	0.137964
691.769	0.144447
692.954	0.133529
694.139	0.127823
695.324	0.125364
696.509	0.118804
697.694	0.114671
698.879	0.111536
700.064	0.107168
701.249	0.105401
702.434	0.098971
703.619	0.0845465
704.804	0.081741
705.989	0.08907
707.174	0.0858499
708.359	0.0771357
709.544	0.0651989
710.729	0.0651571
711.914	0.0747845
713.099	0.0670882
714.284	0.0633648
715.469	0.0734614
716.654	0.0794883
717.839	0.0822633
719.024	0.0885365
720.209	0.0946399
721.394	0.104252
722.579	0.115378
723.764	0.114615
724.949	0.104869
726.134	0.102124
727.319	0.102844
728.504	0.0951377
729.689	0.0972909
730.874	0.0830177
732.059	0.0902408
733.244	0.080978
734.429	0.0657846
735.614	0.0530515
736.799	0.0476343
737.984	0.048683
739.169	0.0498464
740.354	0.0506368
741.539	0.058387
742.724	0.069409
743.909	0.0770999
745.094	0.0817278
746.279	0.0834045
747.464	0.0775749
748.649	0.0664536
749.834	0.0715147
751.019	0.0765419
752.204	0.0740578
753.389	0.0772338
754.574	0.0890959
755.759	0.0951575
756.944	0.0899675
758.129	0.0836134
759.314	0.0702438
760.499	0.0512527
761.684	0.037261
762.869	0.0350847
764.054	0.0297411
765.239	0.0323634
766.424	0.0407148
767.609	0.0403815
768.794	0.0347655
769.979	0.0308663
771.164	0.0343713
772.349	0.0416727
773.534	0.044587
774.719	0.0360216
775.904	0.0146182
777.089	0.0188198
778.274	0.0192144
779.459	0.0271955
780.644	0.0259289
781.829	0.0190633
783.014	0.0159769
784.199	0.017258
785.384	0.00785637
786.569	0.00456215
787.754	0.0102666
788.939	0.0103289
790.124	-0.000230137
791.309	-0.0100656
792.494	-0.0105657
793.679	0.00409014
794.864	0.0240464
796.049	0.0289065
797.234	0.0422607
798.419	0.0601766
799.604	0.082795
800.789	0.0931695
801.974	0.122985
803.159	0.145424
804.344	0.173278
805.529	0.202407
806.714	0.22243
807.898	0.25447
809.083	0.282671
810.268	0.301325
811.454	0.312227
812.639	0.317515
813.824	0.32734
815.009	0.33188
816.194	0.326351
817.379	0.320098
818.564	0.317938
819.749	0.318357
820.934	0.312186
822.119	0.307396
823.304	0.325059
824.489	0.332678
825.673	0.347254
826.858	0.375296
828.043	0.408601
829.228	0.433791
830.413	0.478305
831.598	0.525702
832.783	0.557156
833.968	0.589332
835.153	0.635511
836.338	0.671084
837.523	0.714233
838.708	0.739585
839.893	0.78171
841.078	0.800074
842.263	0.807435
843.448	0.808623
844.633	0.796263
845.818	0.783062
847.003	0.782932
848.188	0.775362
849.373	0.75631
850.558	0.746006
851.743	0.736091
852.928	0.725946
854.113	0.709436
855.298	0.690762
856.483	0.672666
857.668	0.657934
858.853	0.630565
860.038	0.611737
861.223	0.582534
862.408	0.56632
863.593	0.535892
864.778	0.509675
865.963	0.467536
867.148	0.45126
868.333	0.410394
869.518	0.367914
870.703	0.332162
871.888	0.303551
873.073	0.283354
874.258	0.260857
875.443	0.238492
876.628	0.218865
877.813	0.205757
878.998	0.195477
880.183	0.187393
881.368	0.189033
882.553	0.187893
883.738	0.185778
884.923	0.194197
886.108	0.193013
887.293	0.212234
888.478	0.237385
889.663	0.26054
890.848	0.269152
892.033	0.277151
893.218	0.292854
894.403	0.309531
895.588	0.32404
896.773	0.339345
897.958	0.366484
899.143	0.392264
900.328	0.408887
901.513	0.423378
902.698	0.418766
903.883	0.431551
905.068	0.44679
906.253	0.460843
907.438	0.46831
908.623	0.479084
909.808	0.489084
910.993	0.494369
912.178	0.495515
913.363	0.495847
914.548	0.492104
915.733	0.479969
916.918	0.46604
918.103	0.45374
919.288	0.44116
920.473	0.430349
921.658	0.41374
922.843	0.386521
924.028	0.360713
925.213	0.339221
926.398	0.323608
927.583	0.302048
928.768	0.273171
929.953	0.249808
931.138	0.232215
932.323	0.218376
933.508	0.200193
934.693	0.1886
935.878	0.164347
937.063	0.16008
938.248	0.148421
939.433	0.136001
940.618	0.154227
941.803	0.163906
942.988	0.170403
944.173	0.164169
945.358	0.16007
946.543	0.164601
947.728	0.170361
948.913	0.172077
950.098	0.164855
951.283	0.162549
952.468	0.169925
953.653	0.17638
954.838	0.179634
956.023	0.194954
957.208	0.21121
958.393	0.216454
959.578	0.215417
960.763	0.209703
961.948	0.207354
963.133	0.211319
964.318	0.212951
965.503	0.21013
966.688	0.207372
967.873	0.204682
969.058	0.202291
970.243	0.200349
971.428	0.200105
972.613	0.203554
973.798	0.200184
974.983	0.200523
976.168	0.196637
977.353	0.180945
978.538	0.173683
979.723	0.174213
980.908	0.180267
982.093	0.168394
983.278	0.183133
984.463	0.208606
985.648	0.222497
986.833	0.233141
988.018	0.239374
989.203	0.237619
990.388	0.23192
991.573	0.228652
992.758	0.224416
993.943	0.232802
995.128	0.244782
996.313	0.249542
997.498	0.263852
998.683	0.255916
999.868	0.266981
1001.05	0.271056
1002.24	0.259315
1003.42	0.254002
1004.61	0.264301
1005.79	0.280536
1006.98	0.291992
1008.16	0.296967
1009.35	0.311718
1010.53	0.319578
1011.72	0.328701
1012.9	0.352495
1014.09	0.379533
1015.27	0.395304
1016.46	0.420634
1017.64	0.4478
1018.83	0.46299
1020.01	0.483564
1021.2	0.50671
1022.38	0.532827
1023.57	0.551881
1024.75	0.573653
1025.94	0.610953
1027.12	0.642693
1028.31	0.673699
1029.49	0.695789
1030.68	0.701095
1031.86	0.716048
1033.05	0.746186
1034.23	0.769676
1035.42	0.785458
1036.6	0.800225
1037.79	0.809938
1038.97	0.821206
1040.16	0.830549
1041.34	0.833583
1042.53	0.837189
1043.71	0.831611
1044.9	0.819436
1046.08	0.811152
1047.27	0.806659
1048.45	0.810117
1049.64	0.804658
1050.82	0.777509
1052.01	0.747213
1053.19	0.721941
1054.38	0.704656
1055.56	0.693321
1056.75	0.674739
1057.93	0.645651
1059.12	0.62195
1060.3	0.600733
1061.49	0.586034
1062.67	0.56741
1063.86	0.554748
1065.04	0.540784
1066.23	0.524175
1067.41	0.51119
1068.6	0.508188
1069.78	0.499662
1070.97	0.490735
1072.15	0.483624
1073.34	0.467422
1074.52	0.453602
1075.71	0.445269
1076.89	0.438536
1078.08	0.42862
1079.26	0.42894
1080.45	0.437728
1081.63	0.432792
1082.82	0.416921
1084	0.413519
1085.19	0.408316
1086.37	0.388139
1087.56	0.37595
1088.74	0.378881
1089.93	0.366379
1091.11	0.366664
1092.3	0.379498
1093.48	0.393137
1094.67	0.394487
1095.85	0.396495
1097.04	0.389362
1098.22	0.378199
1099.41	0.373303
1100.59	0.371858
1101.78	0.363894
1102.96	0.354548
1104.15	0.355667
1105.33	0.357042
1106.52	0.337757
1107.7	0.327118
1108.89	0.325851
1110.07	0.299207
1111.26	0.274021
1112.44	0.241296
1113.63	0.224455
1114.81	0.207707
1116	0.195706
1117.18	0.184303
1118.37	0.169282
1119.55	0.155881
1120.74	0.140592
1121.92	0.127102
1123.11	0.122555
1124.29	0.123879
1125.48	0.122878
1126.66	0.112844
1127.85	0.107382
1129.03	0.099016
1130.22	0.0988682
1131.4	0.0916097
1132.59	0.089832
1133.77	0.0910677
1134.96	0.0790809
1136.14	0.0736946
1137.33	0.0724469
1138.51	0.0698854
1139.7	0.056951
1140.88	0.0429586
1142.07	0.0374387
1143.25	0.03486
1144.44	0.0317898
1145.62	0.0167773
1146.81	0.0263764
1147.99	0.0316417
1149.18	0.0280238
1150.36	0.0189972
1151.55	0.00714988
1152.73	0.0146363
1153.92	0.0203082
1155.1	0.0101853
1156.29	0.00678256
1157.47	0.0207755
1158.66	0.0324597
1159.84	0.0420921
1161.03	0.0412976
1162.21	0.0350964
1163.4	0.0379851
1164.58	0.0230935
1165.77	0.0293762
1166.95	0.0372609
1168.14	0.0372831
1169.32	0.0349048
1170.51	0.0382948
1171.69	0.0374273
1172.88	0.047764
1174.06	0.0564087
1175.25	0.0617214
1176.43	0.0621673
1177.62	0.0531331
1178.8	0.0598472
1179.99	0.0719621
1181.17	0.0767038
1182.36	0.0803535
1183.54	0.0799878
1184.73	0.0863034
1185.91	0.0927668
1187.1	0.0958721
1188.28	0.0924107
1189.47	0.0930176
1190.65	0.0910954
1191.84	0.0866075
1193.02	0.0767457
1194.21	0.0727961
1195.39	0.0790465
1196.58	0.077233
1197.76	0.073386
1198.95	0.0831248
1200.13	0.0918456
1201.32	0.090779
1202.5	0.0909228
1203.69	0.0947512
1204.87	0.103964
1206.06	0.113217
1207.24	0.124832
1208.43	0.132642
1209.61	0.141022
1210.8	0.153285
1211.98	0.16154
1213.17	0.171079
1214.35	0.185529
1215.54	0.19808
1216.72	0.196684
1217.91	0.205391
1219.09	0.217412
1220.28	0.224841
1221.46	0.220369
1222.65	0.216551
1223.83	0.217123
1225.02	0.218231
1226.2	0.230168
1227.39	0.232261
1228.57	0.234299
1229.76	0.240854
1230.94	0.231787
1232.13	0.238378
1233.31	0.261059
1234.5	0.266851
1235.68	0.266288
1236.87	0.275337
1238.05	0.279455
1239.24	0.290033
1240.42	0.301494
1241.61	0.316345
1242.79	0.322746
1243.98	0.306604
1245.16	0.312249
1246.35	0.32003
1247.53	0.3219
1248.72	0.324156
1249.9	0.329469
1251.09	0.326284
1252.27	0.33258
1253.46	0.331177
1254.64	0.330195
1255.83	0.336367
1257.01	0.345601
1258.2	0.343722
1259.38	0.33492
1260.57	0.337479
1261.75	0.346263
1262.94	0.342318
1264.12	0.340668
1265.31	0.338701
1266.49	0.321664
1267.68	0.303397
1268.86	0.28941
1270.05	0.286068
1271.23	0.280621
1272.42	0.265142
1273.6	0.257432
1274.79	0.254662
1275.97	0.258286
1277.16	0.264942
1278.34	0.263427
1279.53	0.26004
1280.71	0.262237
1281.9	0.241734
1283.08	0.253546
1284.27	0.268524
1285.45	0.268437
1286.64	0.278705
1287.82	0.273682
1289.01	0.271452
1290.19	0.2783
1291.38	0.270682
1292.56	0.268206
1293.75	0.270039
1294.93	0.264531
1296.12	0.272413
1297.3	0.270997
1298.49	0.273527
1299.67	0.277685
1300.86	0.273959
1302.04	0.27083
1303.23	0.272051
1304.41	0.264627
1305.6	0.268051
1306.78	0.275708
1307.97	0.283639
1309.15	0.286725
1310.34	0.279458
1311.52	0.270422
1312.71	0.259847
1313.89	0.257822
1315.08	0.253561
1316.26	0.250386
1317.45	0.246877
1318.63	0.241563
1319.82	0.234869
1321	0.242744
1322.19	0.245673
1323.37	0.241176
1324.56	0.231782
1325.74	0.22885
1326.93	0.232567
1328.11	0.232127
1329.3	0.228282
1330.48	0.227973
1331.67	0.210223
1332.85	0.205299
1334.04	0.202645
1335.22	0.204973
1336.41	0.20583
1337.59	0.201127
1338.78	0.191759
1339.96	0.19672
1341.15	0.198103
1342.33	0.193907
1343.52	0.17852
1344.7	0.158558
1345.89	0.147407
1347.07	0.147954
1348.26	0.161037
1349.44	0.171335
1350.63	0.169102
1351.81	0.156715
1353	0.144678
1354.18	0.146398
1355.37	0.144448
1356.55	0.138491
1357.74	0.127604
1358.92	0.126033
1360.11	0.124645
1361.29	0.132612
1362.48	0.140931
1363.66	0.13129
1364.85	0.131422
1366.03	0.116993
1367.22	0.1151
1368.4	0.113096
1369.59	0.117058
1370.77	0.118239
1371.96	0.110903
1373.14	0.100734
1374.33	0.094762
1375.51	0.097611
1376.7	0.092251
1377.88	0.0889892
1379.07	0.0842086
1380.25	0.0938289
1381.44	0.098812
1382.62	0.0998812
1383.81	0.103998
1384.99	0.106477
1386.18	0.108324
1387.36	0.11137
1388.55	0.110841
1389.73	0.118791
1390.92	0.119071
1392.1	0.113312
1393.29	0.119595
1394.47	0.123906
1395.66	0.131843
1396.84	0.123463
1398.03	0.116179
1399.21	0.102792
1400.4	0.0977933
1401.58	0.0939806
1402.77	0.0994375
1403.95	0.0935575
1405.14	0.0845949
1406.32	0.0857566
1407.51	0.0860127
1408.69	0.0870391
1409.88	0.0874788
1411.06	0.08779
1412.25	0.0900072
1413.43	0.0962648
1414.62	0.0981024
1415.8	0.112303
1416.99	0.110429
1418.17	0.115593
1419.36	0.104693
1420.54	0.117887
1421.73	0.127404
1422.91	0.120515
1424.1	0.131871
1425.28	0.14391
1426.47	0.155646
1427.65	0.16014
1428.84	0.154811
1430.02	0.162707
1431.21	0.171823
1432.39	0.172398
1433.58	0.175464
1434.76	0.193721
1435.95	0.220798
1437.13	0.236128
1438.32	0.250054
1439.5	0.2731
1440.69	0.289856
1441.87	0.303264
1443.06	0.319323
1444.24	0.32884
1445.43	0.353874
1446.61	0.360353
1447.8	0.372857
1448.98	0.395396
1450.17	0.417778
1451.35	0.431344
1452.54	0.429181
1453.72	0.426435
1454.91	0.425537
1456.09	0.427673
1457.28	0.425773
1458.46	0.419113
1459.65	0.416928
1460.83	0.411855
1462.02	0.404946
1463.2	0.39862
1464.39	0.388235
1465.57	0.370701
1466.76	0.356333
1467.94	0.326231
1469.13	0.302022
1470.31	0.27982
1471.5	0.265411
1472.68	0.244263
1473.87	0.222019
1475.05	0.201862
1476.24	0.176932
1477.42	0.149839
1478.61	0.125032
1479.79	0.106155
1480.98	0.0880866
1482.16	0.0658882
1483.35	0.0402757
1484.53	0.0321874
1485.72	0.0208328
1486.9	0.0153925
1488.09	0.0096378
1489.27	0.00273626
1490.46	-0.00195877
1491.64	-0.00211192
1492.83	0.00190992
1494.01	0.00525911
1495.2	0.00993098
1496.38	0.0102346
1497.57	0.0104574
1498.75	0.0197816
1499.94	0.034303
1501.12	0.0359265
1502.31	0.0360244
1503.49	0.0416925
1504.68	0.0353105
1505.86	0.0355882
1507.05	0.0309726
1508.23	0.0303336
1509.42	0.0345155
1510.6	0.0359423
1511.79	0.0336993
1512.97	0.0342559
1514.16	0.0284433
1515.34	0.0211993
1516.53	0.0133652
1517.71	0.0168273
1518.9	0.0224741
1520.08	0.0214114
1521.27	0.0187042
1522.45	0.0170551
1523.64	0.0161863
1524.82	0.0180122
1526.01	0.00957448
1527.19	0.00350888
1528.38	0.00511012
1529.56	0.0082048
1530.75	0.0164557
1531.93	0.0232891
1533.12	0.022462
1534.3	0.0185668
1535.49	0.0193744
1536.67	0.0195857
1537.86	0.0271417
1539.04	0.0304993
1540.23	0.0302213
1541.41	0.0288833
1542.6	0.0275082
1543.78	0.0260517
1544.97	0.0275921
1546.15	0.0242193
1547.34	0.0167384
1548.52	0.00896594
1549.71	0.0149837
1550.89	0.0138149
1552.08	0.0113092
1553.26	0.00839107
1554.45	0.00425438
1555.63	0.00759698
1556.82	0.0124088
1558	0.015406
1559.19	0.0165647
1560.37	0.01225
1561.56	0.00783454
1562.74	0.0104504
1563.93	0.0151937
1565.11	0.0221338
1566.3	0.0254876
1567.48	0.0292382
1568.67	0.0313836
1569.85	0.0334572
1571.04	0.0344994
1572.22	0.0304635
1573.41	0.0282951
1574.59	0.0277192
1575.78	0.0318297
1576.96	0.0363083
1578.15	0.0368461
1579.33	0.0379428
1580.52	0.0410977
1581.7	0.0423547
1582.89	0.0381345
1584.07	0.0395553
1585.26	0.0440767
1586.44	0.0476626
1587.63	0.0518956
1588.81	0.05617
1590	0.0594569
1591.18	0.0627348
1592.37	0.066257
1593.55	0.0727611
1594.74	0.0777227
1595.92	0.07985
1597.11	0.0805023
1598.29	0.0853521
1599.48	0.0899817
1600.66	0.0880299
1601.85	0.0843069
1603.03	0.0850752
1604.22	0.0856783
1605.4	0.0856455
1606.59	0.0861226
1607.77	0.0829719
1608.96	0.0763753
1610.14	0.0715739
1611.33	0.0737731
1612.51	0.0681248
1613.7	0.0663661
1614.88	0.0627517
1616.07	0.0612526
1617.25	0.0669235
1618.44	0.0720326
1619.62	0.0731311
1620.81	0.0728291
1621.99	0.0719011
1623.18	0.07031
1624.36	0.0808419
1625.55	0.0852785
1626.73	0.0893223
1627.92	0.0924302
1629.1	0.102913
1630.29	0.10247
1631.47	0.109063
1632.66	0.112249
1633.84	0.111685
1635.03	0.114625
1636.21	0.119984
1637.4	0.126386
1638.58	0.127875
1639.77	0.131307
1640.95	0.127851
1642.14	0.137328
1643.32	0.144246
1644.51	0.145146
1645.69	0.1553
1646.88	0.162443
1648.06	0.165537
1649.25	0.170934
1650.43	0.177956
1651.62	0.177133
1652.8	0.177921
1653.99	0.185258
1655.17	0.191977
1656.36	0.194399
1657.54	0.196417
1658.73	0.194439
1659.91	0.194552
1661.1	0.199024
1662.28	0.192887
1663.47	0.18926
1664.65	0.185588
1665.84	0.180458
1667.02	0.179637
1668.21	0.183536
1669.39	0.192963
1670.58	0.188552
1671.76	0.187688
1672.95	0.185926
1674.13	0.188792
1675.32	0.19476
1676.5	0.192889
1677.69	0.185929
1678.87	0.187365
1680.06	0.192912
1681.24	0.193021
1682.43	0.188119
1683.61	0.186804
1684.8	0.17974
1685.98	0.164983
1687.17	0.161193
1688.35	0.158584
1689.54	0.160544
1690.72	0.155408
1691.91	0.147104
1693.09	0.138788
1694.28	0.136952
1695.46	0.138747
1696.65	0.130295
1697.83	0.135967
1699.02	0.136526
1700.2	0.143187
1701.39	0.147183
1702.57	0.148761
1703.76	0.150101
1704.94	0.147732
1706.13	0.144403
1707.31	0.145595
1708.5	0.1485
1709.68	0.157194
1710.87	0.158755
1712.05	0.151311
1713.24	0.152933
1714.42	0.149405
1715.61	0.156324
1716.79	0.147171
1717.98	0.151109
1719.16	0.156384
1720.35	0.158585
1721.53	0.160444
1722.72	0.160406
1723.9	0.161231
1725.09	0.159029
1726.27	0.153776
1727.46	0.158902
1728.64	0.154072
1729.83	0.154414
1731.01	0.155093
1732.2	0.155143
1733.38	0.153723
1734.57	0.150009
1735.75	0.146424
1736.94	0.144654
1738.12	0.146429
1739.31	0.140438
1740.49	0.136161
1741.68	0.138494
1742.86	0.139646
1744.05	0.134033
1745.23	0.135496
1746.42	0.131636
1747.6	0.126596
1748.79	0.119885
1749.97	0.117156
1751.16	0.111816
1752.34	0.106373
1753.53	0.104372
1754.71	0.100613
1755.9	0.105221
1757.08	0.101345
1758.27	0.0936764
1759.45	0.083275
1760.64	0.0814034
1761.82	0.0791552
1763.01	0.0768251
1764.19	0.0738437
1765.38	0.0766941
1766.56	0.076884
1767.75	0.0703878
1768.93	0.0710452
1770.12	0.0643133
1771.3	0.0604411
1772.49	0.056026
1773.67	0.0544681
1774.86	0.0581738
1776.04	0.058786
1777.23	0.0540691
1778.41	0.0509059
1779.6	0.0532949
1780.78	0.0458411
1781.97	0.033828
1783.15	0.035727
1784.34	0.0374208
1785.52	0.0332744
1786.71	0.0329405
1787.89	0.029779
1789.08	0.0270735
1790.26	0.014877
1791.45	0.0106106
1792.63	0.0114752
1793.82	0.0102939
1795	0.00401037
