405	-0.0105657
406.185	-0.00740944
407.37	0.000846476
408.555	0.0124408
409.74	0.0260875
410.925	0.0413178
412.11	0.0585544
413.295	0.0754616
414.48	0.0899856
415.665	0.107007
416.85	0.122414
418.035	0.143872
419.22	0.164438
420.405	0.183805
421.59	0.204652
422.775	0.224451
423.96	0.242032
425.145	0.256151
426.33	0.26579
427.515	0.273826
428.7	0.284099
429.885	0.289538
431.07	0.293245
432.255	0.28965
433.44	0.286834
434.625	0.285285
435.81	0.277532
436.995	0.265665
438.18	0.252728
439.365	0.238176
440.55	0.228791
441.735	0.214771
442.92	0.203368
444.105	0.189479
445.29	0.174829
446.475	0.160556
447.66	0.146888
448.845	0.132358
450.03	0.119006
451.215	0.109289
452.4	0.100308
453.585	0.0876516
454.77	0.0752917
455.955	0.0719662
457.14	0.0627946
458.325	0.0599667
459.51	0.0560435
460.695	0.0509037
461.88	0.0464003
463.065	0.043949
464.25	0.0454993
465.435	0.0518217
466.62	0.0590771
467.805	0.0663601
468.99	0.0794862
470.175	0.0912646
471.36	0.105445
472.545	0.123394
473.73	0.146481
474.915	0.173078
476.1	0.201867
477.285	0.231102
478.47	0.259244
479.655	0.289484
480.84	0.324838
482.025	0.360288
483.21	0.400833
484.395	0.43937
485.58	0.478914
486.765	0.517145
487.95	0.55555
489.135	0.590106
490.32	0.621008
491.505	0.652858
492.69	0.682021
493.875	0.703636
495.06	0.725428
496.245	0.744323
497.43	0.757758
498.615	0.768022
499.8	0.769716
500.985	0.765506
502.17	0.757362
503.355	0.744927
504.54	0.727623
505.725	0.705525
506.91	0.677867
508.095	0.643195
509.28	0.614901
510.465	0.581924
511.65	0.546291
512.835	0.513528
514.02	0.474727
515.205	0.438315
516.39	0.403734
517.575	0.367589
518.76	0.335616
519.945	0.311075
521.13	0.282622
522.315	0.253235
523.5	0.225645
524.685	0.201038
525.87	0.183435
527.055	0.173612
528.24	0.160077
529.424	0.147183
530.61	0.137113
531.795	0.128865
532.98	0.122457
534.165	0.116667
535.35	0.109623
536.535	0.108363
537.72	0.107911
538.905	0.100078
540.09	0.0999292
541.275	0.102419
542.46	0.106778
543.645	0.109113
544.83	0.111814
546.014	0.115306
547.199	0.117712
548.384	0.120278
549.569	0.12515
550.754	0.128932
551.939	0.130986
553.124	0.12765
554.309	0.126658
555.494	0.128835
556.679	0.127742
557.864	0.128717
559.049	0.131244
560.234	0.133581
561.419	0.134879
562.604	0.136905
563.789	0.13844
564.974	0.134674
566.159	0.131134
567.344	0.130437
568.529	0.126959
569.714	0.118616
570.899	0.118865
572.084	0.121935
573.269	0.120831
574.454	0.113053
575.639	0.104525
576.824	0.0976513
578.009	0.0903698
579.194	0.0830884
580.379	0.0777007
581.564	0.0713545
582.749	0.0631916
583.934	0.0612905
585.119	0.0499692
586.304	0.0470912
587.489	0.0416502
588.674	0.0401728
589.859	0.0337156
591.044	0.0257842
592.229	0.0220134
593.414	0.0201761
594.599	0.020539
595.784	0.0261299
596.969	0.0301746
598.154	0.0287652
599.339	0.022382
600.524	0.0204916
601.709	0.0191102
602.894	0.0168847
604.079	0.0190567
605.264	0.0207405
606.449	0.0218828
607.634	0.0220795
608.819	0.0244114
610.004	0.0282525
611.189	0.0313019
612.374	0.0349995
613.559	0.0371957
614.744	0.0325037
615.929	0.0274788
617.114	0.0262195
618.299	0.0281755
619.484	0.0293545
620.669	0.028877
621.854	0.0282175
623.039	0.0294085
624.224	0.0287326
625.409	0.0256901
626.594	0.021207
627.779	0.0160903
628.964	0.0119469
630.149	0.00837499
631.334	0.00427818
632.519	0.00648662
633.704	0.00620095
634.889	0.00664678
636.074	0.00358198
637.259	-0.00184888
638.444	-0.00440374
639.629	-0.00413473
640.814	-0.00136411
641.999	-0.00134973
643.184	-0.00406372
644.369	-0.00262538
645.554	0.00310806
646.739	0.00741201
647.924	0.0112339
649.109	0.0153406
650.294	0.0221559
651.479	0.0239733
652.664	0.0293503
653.849	0.0320904
655.034	0.0375281
656.219	0.0469407
657.404	0.0547292
658.589	0.0624804
659.774	0.0666669
660.959	0.0709492
662.144	0.0795756
663.329	0.0884105
664.514	0.0953286
665.699	0.104122
666.884	0.111489
668.069	0.116821
669.254	0.119901
670.439	0.1264
671.624	0.132918
672.809	0.142165
673.994	0.153219
675.179	0.162881
676.364	0.166741
677.549	0.169355
678.734	0.175474
679.919	0.180737
681.104	0.182976
682.289	0.184821
683.474	0.186535
684.659	0.185986
685.844	0.184496
687.029	0.187154
688.214	0.185068
689.399	0.179346
690.584	0.173778
691.769	0.167626
692.954	0.158175
694.139	0.14867
695.324	0.14274
696.509	0.134795
697.694	0.12192
698.879	0.111632
700.064	0.104905
701.249	0.0964437
702.434	0.0863643
703.619	0.0770297
704.804	0.0665822
705.989	0.0571717
707.174	0.053655
708.359	0.047562
709.544	0.0424209
710.729	0.0350763
711.914	0.0312832
713.099	0.0282199
714.284	0.0245839
715.469	0.0220479
716.654	0.0211452
717.839	0.0218636
719.024	0.0209119
720.209	0.0183578
721.394	0.0156696
722.579	0.0163014
723.764	0.0194504
724.949	0.0182535
726.134	0.0149168
727.319	0.0158424
728.504	0.0153726
729.689	0.0151669
730.874	0.0124255
732.059	0.0105472
733.244	0.0102852
734.429	0.0116161
735.614	0.0140511
736.799	0.0139957
737.984	0.014639
739.169	0.0178914
740.354	0.0194438
741.539	0.0159602
742.724	0.0115057
743.909	0.00807275
745.094	0.00625878
746.279	0.00738852
747.464	0.00836606
748.649	0.00932482
749.834	0.0109505
751.019	0.00912807
752.204	0.00814241
753.389	0.00581731
754.574	0.00157105
755.759	-0.00240975
756.944	-0.00488316
758.129	-0.008076
759.314	-0.00584862
760.499	-0.0042024
761.684	-0.00198859
762.869	0.00147058
764.054	0.00326888
765.239	0.00207532
766.424	0.000971012
767.609	0.000467241
768.794	0.000379816
769.979	0.00386719
771.164	0.00857261
772.349	0.0105494
773.534	0.0149406
774.719	0.0193851
775.904	0.0189623
777.089	0.0182819
778.274	0.0188719
779.459	0.020142
780.644	0.0185494
781.829	0.0195293
783.014	0.0190984
784.199	0.0221333
785.384	0.0225004
786.569	0.0233819
787.754	0.0249057
788.939	0.0235655
790.124	0.0221055
791.309	0.0231048
792.494	0.0226946
793.679	0.0217622
794.864	0.0244798
796.049	0.0273704
797.234	0.0322464
798.419	0.0414759
799.604	0.0526394
800.789	0.0564448
801.974	0.0680788
803.159	0.0756111
804.344	0.0866966
805.529	0.101624
806.714	0.116829
807.898	0.134761
809.083	0.155297
810.268	0.177312
811.454	0.201325
812.639	0.228914
813.824	0.255895
815.009	0.280305
816.194	0.303518
817.379	0.325025
818.564	0.348261
819.749	0.372496
820.934	0.393158
822.119	0.414623
823.304	0.43691
824.489	0.454995
825.673	0.467677
826.858	0.477806
828.043	0.490193
829.228	0.494496
830.413	0.503496
831.598	0.507431
832.783	0.516847
833.968	0.527034
835.153	0.538377
836.338	0.553542
837.523	0.569912
838.708	0.584451
839.893	0.606708
841.078	0.628925
842.263	0.654013
843.448	0.682192
844.633	0.711717
845.818	0.74271
847.003	0.777537
848.188	0.811804
849.373	0.839994
850.558	0.865476
851.743	0.888122
852.928	0.905874
854.113	0.92302
855.298	0.935038
856.483	0.94092
857.668	0.948225
858.853	0.945219
860.038	0.940739
861.223	0.921461
862.408	0.910441
863.593	0.894914
864.778	0.865401
865.963	0.838317
867.148	0.808255
868.333	0.777428
869.518	0.746675
870.703	0.716794
871.888	0.680868
873.073	0.641788
874.258	0.606933
875.443	0.570438
876.628	0.531685
877.813	0.494869
878.998	0.460581
880.183	0.424898
881.368	0.388058
882.553	0.356115
883.738	0.326207
884.923	0.295299
886.108	0.270972
887.293	0.248362
888.478	0.226642
889.663	0.207497
890.848	0.194964
892.033	0.184343
893.218	0.173716
894.403	0.169162
895.588	0.168226
896.773	0.165629
897.958	0.171253
899.143	0.174803
900.328	0.181841
901.513	0.19004
902.698	0.201522
903.883	0.211207
905.068	0.223739
906.253	0.233828
907.438	0.246891
908.623	0.261803
909.808	0.274555
910.993	0.288637
912.178	0.300123
913.363	0.311165
914.548	0.323467
915.733	0.33446
916.918	0.345517
918.103	0.355671
919.288	0.36464
920.473	0.372595
921.658	0.378896
922.843	0.383366
924.028	0.384521
925.213	0.389296
926.398	0.389632
927.583	0.385172
928.768	0.381277
929.953	0.3752
931.138	0.366224
932.323	0.355875
933.508	0.342573
934.693	0.32917
935.878	0.311799
937.063	0.294022
938.248	0.278293
939.433	0.261422
940.618	0.240737
941.803	0.225949
942.988	0.204011
944.173	0.183628
945.358	0.168577
946.543	0.154924
947.728	0.139421
948.913	0.127661
950.098	0.116545
951.283	0.105849
952.468	0.0975965
953.653	0.0948468
954.838	0.0902275
956.023	0.0806793
957.208	0.0743902
958.393	0.072108
959.578	0.0709236
960.763	0.0739599
961.948	0.0769984
963.133	0.0777089
964.318	0.0779604
965.503	0.0801331
966.688	0.0853759
967.873	0.0915313
969.058	0.0988275
970.243	0.106288
971.428	0.110959
972.613	0.115577
973.798	0.124301
974.983	0.132167
976.168	0.13927
977.353	0.144117
978.538	0.14687
979.723	0.147581
980.908	0.152519
982.093	0.154474
983.278	0.156585
984.463	0.15591
985.648	0.149567
986.833	0.145111
988.018	0.143302
989.203	0.139754
990.388	0.136204
991.573	0.133175
992.758	0.127791
993.943	0.123402
995.128	0.119771
996.313	0.119988
997.498	0.117435
998.683	0.115293
999.868	0.115249
1001.05	0.112314
1002.24	0.111451
1003.42	0.112395
1004.61	0.110334
1005.79	0.107049
1006.98	0.109031
1008.16	0.107397
1009.35	0.110172
1010.53	0.116787
1011.72	0.119307
1012.9	0.122774
1014.09	0.1281
1015.27	0.136576
1016.46	0.141223
1017.64	0.146069
1018.83	0.154516
1020.01	0.161989
1021.2	0.176942
1022.38	0.195583
1023.57	0.215559
1024.75	0.233478
1025.94	0.254388
1027.12	0.27359
1028.31	0.292539
1029.49	0.314458
1030.68	0.338535
1031.86	0.361754
1033.05	0.382235
1034.23	0.406192
1035.42	0.435962
1036.6	0.466054
1037.79	0.496237
1038.97	0.524465
1040.16	0.549872
1041.34	0.576553
1042.53	0.600716
1043.71	0.621605
1044.9	0.643905
1046.08	0.669396
1047.27	0.692951
1048.45	0.713302
1049.64	0.729123
1050.82	0.746283
1052.01	0.762189
1053.19	0.772501
1054.38	0.781105
1055.56	0.789117
1056.75	0.79443
1057.93	0.798192
1059.12	0.796889
1060.3	0.793757
1061.49	0.792381
1062.67	0.788794
1063.86	0.779923
1065.04	0.769219
1066.23	0.758744
1067.41	0.749539
1068.6	0.738957
1069.78	0.726421
1070.97	0.716064
1072.15	0.703097
1073.34	0.692295
1074.52	0.679213
1075.71	0.664973
1076.89	0.652744
1078.08	0.63779
1079.26	0.624162
1080.45	0.613346
1081.63	0.602143
1082.82	0.589971
1084	0.576689
1085.19	0.564916
1086.37	0.556815
1087.56	0.548035
1088.74	0.539408
1089.93	0.530924
1091.11	0.517555
1092.3	0.506574
1093.48	0.499621
1094.67	0.489752
1095.85	0.484378
1097.04	0.480152
1098.22	0.473934
1099.41	0.469987
1100.59	0.46487
1101.78	0.469134
1102.96	0.468401
1104.15	0.464935
1105.33	0.462521
1106.52	0.459452
1107.7	0.457133
1108.89	0.460588
1110.07	0.462728
1111.26	0.460955
1112.44	0.460386
1113.63	0.457483
1114.81	0.449357
1116	0.441642
1117.18	0.433412
1118.37	0.422965
1119.55	0.405015
1120.74	0.388865
1121.92	0.371329
1123.11	0.354053
1124.29	0.336306
1125.48	0.317427
1126.66	0.293209
1127.85	0.268833
1129.03	0.249882
1130.22	0.226785
1131.4	0.204835
1132.59	0.184458
1133.77	0.168109
1134.96	0.148436
1136.14	0.132793
1137.33	0.116828
1138.51	0.102841
1139.7	0.0883588
1140.88	0.077792
1142.07	0.0657402
1143.25	0.0571019
1144.44	0.0522026
1145.62	0.0473341
1146.81	0.0367259
1147.99	0.0337647
1149.18	0.0302428
1150.36	0.027115
1151.55	0.0240254
1152.73	0.0221113
1153.92	0.0215785
1155.1	0.0213427
1156.29	0.0228999
1157.47	0.0226271
1158.66	0.0194645
1159.84	0.0176367
1161.03	0.0122071
1162.21	0.00774042
1163.4	0.00421141
1164.58	0.00365721
1165.77	0.00392024
1166.95	0.00763036
1168.14	0.00801723
1169.32	0.00495371
1170.51	0.0020723
1171.69	-0.00107948
1172.88	-0.00480255
1174.06	-0.00550544
1175.25	-0.0035863
1176.43	0.000826472
1177.62	0.00472736
1178.8	0.00922128
1179.99	0.0134379
1181.17	0.0177024
1182.36	0.0216431
1183.54	0.0230813
1184.73	0.0237359
1185.91	0.0268247
1187.1	0.0305198
1188.28	0.0367256
1189.47	0.04231
1190.65	0.047676
1191.84	0.0529121
1193.02	0.0567667
1194.21	0.0585553
1195.39	0.0637229
1196.58	0.0687779
1197.76	0.0728291
1198.95	0.077003
1200.13	0.0806348
1201.32	0.084652
1202.5	0.0881424
1203.69	0.093022
1204.87	0.0960153
1206.06	0.0982112
1207.24	0.101766
1208.43	0.104837
1209.61	0.109267
1210.8	0.116526
1211.98	0.119862
1213.17	0.117995
1214.35	0.120797
1215.54	0.123043
1216.72	0.126516
1217.91	0.129453
1219.09	0.131674
1220.28	0.134946
1221.46	0.134229
1222.65	0.134268
1223.83	0.138005
1225.02	0.143033
1226.2	0.148198
1227.39	0.149667
1228.57	0.151642
1229.76	0.160856
1230.94	0.171014
1232.13	0.171991
1233.31	0.174174
1234.5	0.17849
1235.68	0.185014
1236.87	0.191258
1238.05	0.199732
1239.24	0.208325
1240.42	0.215877
1241.61	0.220483
1242.79	0.223725
1243.98	0.230338
1245.16	0.238184
1246.35	0.240178
1247.53	0.243431
1248.72	0.246413
1249.9	0.251152
1251.09	0.259827
1252.27	0.261404
1253.46	0.258345
1254.64	0.256027
1255.83	0.254482
1257.01	0.258195
1258.2	0.260421
1259.38	0.258767
1260.57	0.258618
1261.75	0.256999
1262.94	0.257782
1264.12	0.257131
1265.31	0.253097
1266.49	0.252294
1267.68	0.25091
1268.86	0.25096
1270.05	0.255887
1271.23	0.262198
1272.42	0.264653
1273.6	0.267183
1274.79	0.265621
1275.97	0.264139
1277.16	0.265892
1278.34	0.267609
1279.53	0.26374
1280.71	0.2596
1281.9	0.25661
1283.08	0.257621
1284.27	0.256223
1285.45	0.258322
1286.64	0.251156
1287.82	0.246964
1289.01	0.237848
1290.19	0.237748
1291.38	0.229557
1292.56	0.224232
1293.75	0.224478
1294.93	0.22004
1296.12	0.218113
1297.3	0.217417
1298.49	0.218432
1299.67	0.221162
1300.86	0.218706
1302.04	0.216087
1303.23	0.212633
1304.41	0.21056
1305.6	0.209567
1306.78	0.211003
1307.97	0.211346
1309.15	0.216351
1310.34	0.218286
1311.52	0.219943
1312.71	0.220452
1313.89	0.219434
1315.08	0.220693
1316.26	0.217582
1317.45	0.214564
1318.63	0.214029
1319.82	0.215079
1321	0.214819
1322.19	0.21659
1323.37	0.220333
1324.56	0.220425
1325.74	0.21656
1326.93	0.214107
1328.11	0.217404
1329.3	0.211677
1330.48	0.210121
1331.67	0.208344
1332.85	0.209098
1334.04	0.208143
1335.22	0.209318
1336.41	0.209529
1337.59	0.210169
1338.78	0.211344
1339.96	0.211893
1341.15	0.210008
1342.33	0.213294
1343.52	0.21566
1344.7	0.214921
1345.89	0.213314
1347.07	0.216877
1348.26	0.220697
1349.44	0.221011
1350.63	0.222819
1351.81	0.226429
1353	0.228996
1354.18	0.226764
1355.37	0.226664
1356.55	0.225282
1357.74	0.227759
1358.92	0.230184
1360.11	0.231898
1361.29	0.236307
1362.48	0.241741
1363.66	0.245717
1364.85	0.245147
1366.03	0.243195
1367.22	0.247998
1368.4	0.249781
1369.59	0.246046
1370.77	0.248489
1371.96	0.248881
1373.14	0.249262
1374.33	0.24838
1375.51	0.244581
1376.7	0.243331
1377.88	0.238942
1379.07	0.234382
1380.25	0.232241
1381.44	0.232501
1382.62	0.233527
1383.81	0.22928
1384.99	0.226095
1386.18	0.226603
1387.36	0.225565
1388.55	0.227004
1389.73	0.225748
1390.92	0.229588
1392.1	0.23072
1393.29	0.227181
1394.47	0.227849
1395.66	0.229826
1396.84	0.229711
1398.03	0.228245
1399.21	0.223165
1400.4	0.224738
1401.58	0.224152
1402.77	0.225701
1403.95	0.225985
1405.14	0.226139
1406.32	0.226607
1407.51	0.226541
1408.69	0.226756
1409.88	0.227322
1411.06	0.228366
1412.25	0.229442
1413.43	0.228197
1414.62	0.229009
1415.8	0.234489
1416.99	0.234683
1418.17	0.233124
1419.36	0.2297
1420.54	0.234092
1421.73	0.233285
1422.91	0.235367
1424.1	0.233966
1425.28	0.234006
1426.47	0.233133
1427.65	0.237551
1428.84	0.236576
1430.02	0.236278
1431.21	0.238635
1432.39	0.23965
1433.58	0.242186
1434.76	0.246508
1435.95	0.250909
1437.13	0.252954
1438.32	0.257561
1439.5	0.263254
1440.69	0.270655
1441.87	0.278654
1443.06	0.286168
1444.24	0.290449
1445.43	0.298673
1446.61	0.314391
1447.8	0.328061
1448.98	0.341291
1450.17	0.354785
1451.35	0.371183
1452.54	0.393872
1453.72	0.414861
1454.91	0.432666
1456.09	0.448745
1457.28	0.467264
1458.46	0.48853
1459.65	0.509614
1460.83	0.5318
1462.02	0.551348
1463.2	0.56995
1464.39	0.585191
1465.57	0.596262
1466.76	0.606091
1467.94	0.617158
1469.13	0.619849
1470.31	0.619472
1471.5	0.617311
1472.68	0.613862
1473.87	0.608437
1475.05	0.598268
1476.24	0.582938
1477.42	0.568219
1478.61	0.550918
1479.79	0.530468
1480.98	0.509325
1482.16	0.492452
1483.35	0.470811
1484.53	0.44446
1485.72	0.421582
1486.9	0.398949
1488.09	0.381633
1489.27	0.362508
1490.46	0.342113
1491.64	0.322944
1492.83	0.307384
1494.01	0.292855
1495.2	0.276496
1496.38	0.263097
1497.57	0.249659
1498.75	0.234893
1499.94	0.224326
1501.12	0.218345
1502.31	0.210709
1503.49	0.204844
1504.68	0.196638
1505.86	0.190492
1507.05	0.187927
1508.23	0.186733
1509.42	0.186582
1510.6	0.181881
1511.79	0.181737
1512.97	0.181997
1514.16	0.179474
1515.34	0.179101
1516.53	0.181176
1517.71	0.179647
1518.9	0.180433
1520.08	0.17595
1521.27	0.172758
1522.45	0.172761
1523.64	0.168957
1524.82	0.166491
1526.01	0.159553
1527.19	0.156882
1528.38	0.157141
1529.56	0.151764
1530.75	0.15539
1531.93	0.15203
1533.12	0.149521
1534.3	0.150658
1535.49	0.14846
1536.67	0.149334
1537.86	0.149082
1539.04	0.142739
1540.23	0.139924
1541.41	0.136363
1542.6	0.135366
1543.78	0.133506
1544.97	0.127663
1546.15	0.126961
1547.34	0.120355
1548.52	0.120071
1549.71	0.116838
1550.89	0.110901
1552.08	0.108038
1553.26	0.106169
1554.45	0.104074
1555.63	0.104269
1556.82	0.102205
1558	0.101144
1559.19	0.0988417
1560.37	0.0956573
1561.56	0.0942904
1562.74	0.0890644
1563.93	0.0874912
1565.11	0.0848607
1566.3	0.0853828
1567.48	0.0855314
1568.67	0.084235
1569.85	0.082453
1571.04	0.0816041
1572.22	0.0817061
1573.41	0.082339
1574.59	0.0804828
1575.78	0.0792739
1576.96	0.0802698
1578.15	0.0806623
1579.33	0.0817869
1580.52	0.0820757
1581.7	0.0810995
1582.89	0.0756406
1584.07	0.0733353
1585.26	0.0713941
1586.44	0.0686392
1587.63	0.0670354
1588.81	0.0639106
1590	0.0611346
1591.18	0.0590576
1592.37	0.0572844
1593.55	0.0546714
1594.74	0.05317
1595.92	0.0499476
1597.11	0.047363
1598.29	0.0463034
1599.48	0.0457969
1600.66	0.0429003
1601.85	0.0425023
1603.03	0.0405385
1604.22	0.0378358
1605.4	0.037035
1606.59	0.0371431
1607.77	0.0368657
1608.96	0.0354053
1610.14	0.0339993
1611.33	0.0312623
1612.51	0.030649
1613.7	0.0298076
1614.88	0.027909
1616.07	0.0274031
1617.25	0.0288738
1618.44	0.0270379
1619.62	0.0275755
1620.81	0.0272574
1621.99	0.0229113
1623.18	0.0173309
1624.36	0.0144907
1625.55	0.011782
1626.73	0.00973527
1627.92	0.01015
1629.1	0.00885037
1630.29	0.00757435
1631.47	0.00652443
1632.66	0.00175893
1633.84	-0.00043192
1635.03	-0.00239583
1636.21	-0.00413913
1637.4	-0.00239377
1638.58	-0.000678124
1639.77	0.00203089
1640.95	0.00355269
1642.14	0.00328688
1643.32	0.00294602
1644.51	0.00346329
1645.69	0.00428555
1646.88	0.00763881
1648.06	0.0112416
1649.25	0.0156021
1650.43	0.0156163
1651.62	0.015708
1652.8	0.0159371
1653.99	0.0160916
1655.17	0.0188753
1656.36	0.018709
1657.54	0.0190711
1658.73	0.0202232
1659.91	0.0219307
1661.1	0.0226675
1662.28	0.023393
1663.47	0.0216747
1664.65	0.0202646
1665.84	0.0209909
1667.02	0.0224571
1668.21	0.024021
1669.39	0.0238347
1670.58	0.0240634
1671.76	0.0275277
1672.95	0.0301172
1674.13	0.0304526
1675.32	0.0315627
1676.5	0.0314131
1677.69	0.0311683
1678.87	0.0317773
1680.06	0.0313295
1681.24	0.0280696
1682.43	0.0263505
1683.61	0.0273338
1684.8	0.0279767
1685.98	0.0281355
1687.17	0.0295086
1688.35	0.0279849
1689.54	0.0263908
1690.72	0.0274048
1691.91	0.0294507
1693.09	0.0303484
1694.28	0.0330344
1695.46	0.0327795
1696.65	0.0360291
1697.83	0.0389784
1699.02	0.0382457
1700.2	0.0397313
1701.39	0.0381997
1702.57	0.0394816
1703.76	0.0393762
1704.94	0.0394713
1706.13	0.0416825
1707.31	0.0416854
1708.5	0.0417639
1709.68	0.042522
1710.87	0.0424351
1712.05	0.0459612
1713.24	0.0451335
1714.42	0.0474211
1715.61	0.0481878
1716.79	0.0489439
1717.98	0.0518308
1719.16	0.0532415
1720.35	0.0541256
1721.53	0.0541578
1722.72	0.0539969
1723.9	0.0529727
1725.09	0.0538644
1726.27	0.0534487
1727.46	0.0490905
1728.64	0.0458959
1729.83	0.0432396
1731.01	0.0404322
1732.2	0.0413267
1733.38	0.040503
1734.57	0.0375936
1735.75	0.0344764
1736.94	0.0317589
1738.12	0.0299765
1739.31	0.0301931
1740.49	0.0314417
1741.68	0.030928
1742.86	0.0310559
1744.05	0.0350792
1745.23	0.0360502
1746.42	0.0382492
1747.6	0.0400114
1748.79	0.0385026
1749.97	0.0388535
1751.16	0.0400547
1752.34	0.0411799
1753.53	0.044204
1754.71	0.0427975
1755.9	0.0410602
1757.08	0.0404125
1758.27	0.0400938
1759.45	0.0377107
1760.64	0.0341807
1761.82	0.0320482
1763.01	0.0311119
1764.19	0.0304908
1765.38	0.0281825
1766.56	0.0268305
1767.75	0.0265232
1768.93	0.0260172
1770.12	0.0255417
1771.3	0.0235808
1772.49	0.0233769
1773.67	0.02266
1774.86	0.0220988
1776.04	0.0233719
1777.23	0.0243352
1778.41	0.0241522
1779.6	0.0196468
1780.78	0.020355
1781.97	0.0187409
1783.15	0.0163795
1784.34	0.0138119
1785.52	0.010429
1786.71	0.00911905
1787.89	0.00912419
1789.08	0.00849706
1790.26	0.00678681
1791.45	0.00582723
1792.63	0.00481631
1793.82	0.00459771
1795	0.00649351
