405	0.142954
406.185	0.137634
407.37	0.134154
408.555	0.131722
409.74	0.130442
410.925	0.13175
412.11	0.138767
413.295	0.147796
414.48	0.152961
415.665	0.161235
416.85	0.167818
418.035	0.175918
419.22	0.186086
420.405	0.19639
421.59	0.207029
422.775	0.217781
423.96	0.229788
425.145	0.242722
426.33	0.254381
427.515	0.26289
428.7	0.266276
429.885	0.269979
431.07	0.272824
432.255	0.266774
433.44	0.262201
434.625	0.254508
435.81	0.245259
436.995	0.234869
438.18	0.223306
439.365	0.211459
440.55	0.196038
441.735	0.178427
442.92	0.164599
444.105	0.14884
445.29	0.130892
446.475	0.115714
447.66	0.102227
448.845	0.090168
450.03	0.0753934
451.215	0.0577491
452.4	0.0438653
453.585	0.0321459
454.77	0.0242088
455.955	0.0141411
457.14	0.0109265
458.325	0.0032009
459.51	-0.00068347
460.695	-0.00446913
461.88	-0.00892425
463.065	-0.0105657
464.25	-0.00890242
465.435	-0.00707478
466.62	-0.00371911
467.805	0.00510835
468.99	0.013781
470.175	0.0287372
471.36	0.0444402
472.545	0.0591213
473.73	0.0757107
474.915	0.0960821
476.1	0.118816
477.285	0.142955
478.47	0.169252
479.655	0.197537
480.84	0.23098
482.025	0.26286
483.21	0.294493
484.395	0.326115
485.58	0.360097
486.765	0.392528
487.95	0.426182
489.135	0.458878
490.32	0.489339
491.505	0.51993
492.69	0.548898
493.875	0.573448
495.06	0.596288
496.245	0.614639
497.43	0.626396
498.615	0.63181
499.8	0.632145
500.985	0.631232
502.17	0.624631
503.355	0.614274
504.54	0.601227
505.725	0.581769
506.91	0.560199
508.095	0.534299
509.28	0.50664
510.465	0.475197
511.65	0.443705
512.835	0.411412
514.02	0.377527
515.205	0.342485
516.39	0.307505
517.575	0.276311
518.76	0.250139
519.945	0.22439
521.13	0.196542
522.315	0.173421
523.5	0.150945
524.685	0.132371
525.87	0.114852
527.055	0.0971363
528.24	0.080292
529.424	0.0674436
530.61	0.0593521
531.795	0.0533141
532.98	0.0463093
534.165	0.0392007
535.35	0.0355747
536.535	0.034269
537.72	0.0334576
538.905	0.0311464
540.09	0.0308806
541.275	0.0290475
542.46	0.0298248
543.645	0.0296932
544.83	0.0320327
546.014	0.0346992
547.199	0.0380994
548.384	0.0439593
549.569	0.0468369
550.754	0.0466157
551.939	0.0500726
553.124	0.0539245
554.309	0.0559294
555.494	0.061595
556.679	0.0602011
557.864	0.05792
559.049	0.0597925
560.234	0.063796
561.419	0.065377
562.604	0.0660227
563.789	0.0681707
564.974	0.0684915
566.159	0.0688783
567.344	0.0711226
568.529	0.0701541
569.714	0.0710194
570.899	0.0703531
572.084	0.0695126
573.269	0.0674582
574.454	0.0630773
575.639	0.0611512
576.824	0.0613705
578.009	0.0606887
579.194	0.0598437
580.379	0.058984
581.564	0.0542715
582.749	0.0493094
583.934	0.0412188
585.119	0.041177
586.304	0.0342535
587.489	0.0277898
588.674	0.0235115
589.859	0.0194069
591.044	0.0149749
592.229	0.0122723
593.414	0.0118255
594.599	0.0108529
595.784	0.00888665
596.969	0.00814093
598.154	0.00239685
599.339	-0.00320945
600.524	-0.00182797
601.709	-0.00127206
602.894	0.00215609
604.079	0.00183571
605.264	0.00399813
606.449	0.00622891
607.634	0.00807829
608.819	0.00938728
610.004	0.0107313
611.189	0.0119692
612.374	0.0115083
613.559	0.010332
614.744	0.010681
615.929	0.0133139
617.114	0.016807
618.299	0.0187584
619.484	0.0151769
620.669	0.0168406
621.854	0.0145809
623.039	0.0123075
624.224	0.011354
625.409	0.0104171
626.594	0.00986747
627.779	0.00968217
628.964	0.00867507
630.149	0.0071784
631.334	0.00615513
632.519	0.00779116
633.704	0.00913954
634.889	0.00670557
636.074	0.00547
637.259	0.00390833
638.444	0.00523448
639.629	0.00454083
640.814	0.00492994
641.999	0.0043575
643.184	0.00178083
644.369	0.000580156
645.554	-0.000150569
646.739	-0.00208769
647.924	-0.000391262
649.109	0.00199521
650.294	0.00415523
651.479	0.00565225
652.664	0.00852913
653.849	0.0113317
655.034	0.0117052
656.219	0.0159716
657.404	0.0212886
658.589	0.0263514
659.774	0.0318127
660.959	0.0415475
662.144	0.0527527
663.329	0.0617078
664.514	0.069116
665.699	0.0763995
666.884	0.086313
668.069	0.0946578
669.254	0.0995073
670.439	0.1073
671.624	0.115106
672.809	0.121244
673.994	0.131609
675.179	0.140391
676.364	0.14752
677.549	0.154349
678.734	0.161852
679.919	0.164615
681.104	0.166212
682.289	0.17033
683.474	0.17441
684.659	0.177014
685.844	0.174179
687.029	0.172754
688.214	0.173432
689.399	0.168009
690.584	0.164693
691.769	0.162013
692.954	0.155068
694.139	0.148764
695.324	0.143646
696.509	0.139283
697.694	0.13151
698.879	0.126034
700.064	0.11971
701.249	0.11024
702.434	0.103828
703.619	0.100949
704.804	0.0962927
705.989	0.0916339
707.174	0.0893591
708.359	0.0899458
709.544	0.0864952
710.729	0.0829512
711.914	0.0839482
713.099	0.0834767
714.284	0.0818591
715.469	0.0761899
716.654	0.0734588
717.839	0.0711539
719.024	0.0711427
720.209	0.0721298
721.394	0.0704102
722.579	0.0688667
723.764	0.0694204
724.949	0.0691826
726.134	0.0696088
727.319	0.069026
728.504	0.06934
729.689	0.0712806
730.874	0.0702704
732.059	0.0711879
733.244	0.0748609
734.429	0.0774907
735.614	0.0785184
736.799	0.0824464
737.984	0.0840274
739.169	0.0855136
740.354	0.0858439
741.539	0.0863611
742.724	0.0894159
743.909	0.094046
745.094	0.0961221
746.279	0.0966786
747.464	0.0998396
748.649	0.101181
749.834	0.1046
751.019	0.10792
752.204	0.105178
753.389	0.107834
754.574	0.110872
755.759	0.106231
756.944	0.106457
758.129	0.107018
759.314	0.107845
760.499	0.106308
761.684	0.105422
762.869	0.10301
764.054	0.100984
765.239	0.0977301
766.424	0.095311
767.609	0.0965065
768.794	0.096569
769.979	0.0948582
771.164	0.0957447
772.349	0.0951098
773.534	0.0970471
774.719	0.100828
775.904	0.100465
777.089	0.09976
778.274	0.103775
779.459	0.104719
780.644	0.1056
781.829	0.108726
783.014	0.112386
784.199	0.119519
785.384	0.123607
786.569	0.123808
787.754	0.123585
788.939	0.124101
790.124	0.127562
791.309	0.131441
792.494	0.1337
793.679	0.135661
794.864	0.137704
796.049	0.141476
797.234	0.144363
798.419	0.147522
799.604	0.149852
800.789	0.152846
801.974	0.161712
803.159	0.164689
804.344	0.167788
805.529	0.177035
806.714	0.189506
807.898	0.202513
809.083	0.214508
810.268	0.23038
811.454	0.24521
812.639	0.266328
813.824	0.28865
815.009	0.311015
816.194	0.334888
817.379	0.359079
818.564	0.381622
819.749	0.401833
820.934	0.421493
822.119	0.442237
823.304	0.461413
824.489	0.477467
825.673	0.49705
826.858	0.512933
828.043	0.524256
829.228	0.532185
830.413	0.54384
831.598	0.551277
832.783	0.561387
833.968	0.566392
835.153	0.574604
836.338	0.585876
837.523	0.600323
838.708	0.616547
839.893	0.633847
841.078	0.654801
842.263	0.678691
843.448	0.700791
844.633	0.72426
845.818	0.749422
847.003	0.777048
848.188	0.806042
849.373	0.831859
850.558	0.85453
851.743	0.877499
852.928	0.902086
854.113	0.919589
855.298	0.931446
856.483	0.941262
857.668	0.946515
858.853	0.948225
860.038	0.944355
861.223	0.936765
862.408	0.923755
863.593	0.907659
864.778	0.889209
865.963	0.869341
867.148	0.844582
868.333	0.821151
869.518	0.796535
870.703	0.765701
871.888	0.736373
873.073	0.708331
874.258	0.679505
875.443	0.649713
876.628	0.618317
877.813	0.587908
878.998	0.558695
880.183	0.530939
881.368	0.506515
882.553	0.48381
883.738	0.461307
884.923	0.441011
886.108	0.422209
887.293	0.401838
888.478	0.386027
889.663	0.372641
890.848	0.361101
892.033	0.35101
893.218	0.342655
894.403	0.337224
895.588	0.337328
896.773	0.335903
897.958	0.336
899.143	0.339441
900.328	0.344803
901.513	0.351311
902.698	0.352899
903.883	0.360278
905.068	0.373498
906.253	0.385909
907.438	0.396499
908.623	0.402798
909.808	0.411312
910.993	0.422363
912.178	0.436352
913.363	0.449988
914.548	0.462128
915.733	0.475238
916.918	0.486814
918.103	0.49477
919.288	0.50322
920.473	0.514367
921.658	0.522929
922.843	0.526187
924.028	0.528156
925.213	0.529065
926.398	0.531209
927.583	0.532848
928.768	0.529008
929.953	0.522756
931.138	0.510783
932.323	0.497444
933.508	0.487956
934.693	0.476368
935.878	0.464038
937.063	0.448551
938.248	0.431508
939.433	0.414182
940.618	0.399085
941.803	0.380484
942.988	0.361612
944.173	0.344838
945.358	0.331301
946.543	0.318111
947.728	0.304947
948.913	0.294154
950.098	0.284118
951.283	0.274784
952.468	0.261029
953.653	0.251729
954.838	0.246877
956.023	0.242087
957.208	0.237063
958.393	0.232479
959.578	0.230198
960.763	0.231835
961.948	0.235988
963.133	0.238229
964.318	0.237899
965.503	0.240456
966.688	0.246009
967.873	0.252543
969.058	0.259354
970.243	0.267425
971.428	0.277332
972.613	0.28047
973.798	0.284379
974.983	0.292151
976.168	0.297685
977.353	0.302087
978.538	0.305457
979.723	0.305876
980.908	0.307021
982.093	0.31018
983.278	0.312622
984.463	0.309897
985.648	0.307294
986.833	0.303772
988.018	0.297957
989.203	0.291981
990.388	0.288528
991.573	0.287057
992.758	0.281775
993.943	0.280179
995.128	0.278522
996.313	0.275383
997.498	0.275846
998.683	0.271371
999.868	0.267843
1001.05	0.267396
1002.24	0.266484
1003.42	0.266987
1004.61	0.267554
1005.79	0.268133
1006.98	0.271471
1008.16	0.276847
1009.35	0.278859
1010.53	0.281362
1011.72	0.284553
1012.9	0.288121
1014.09	0.293541
1015.27	0.296339
1016.46	0.300878
1017.64	0.309611
1018.83	0.31772
1020.01	0.325281
1021.2	0.335564
1022.38	0.348466
1023.57	0.362514
1024.75	0.374974
1025.94	0.385048
1027.12	0.399059
1028.31	0.415904
1029.49	0.431711
1030.68	0.449598
1031.86	0.469944
1033.05	0.492157
1034.23	0.514819
1035.42	0.534949
1036.6	0.554102
1037.79	0.574256
1038.97	0.593769
1040.16	0.612299
1041.34	0.630728
1042.53	0.648522
1043.71	0.667252
1044.9	0.685844
1046.08	0.702722
1047.27	0.719928
1048.45	0.734966
1049.64	0.746186
1050.82	0.753828
1052.01	0.761304
1053.19	0.766698
1054.38	0.771497
1055.56	0.778085
1056.75	0.781295
1057.93	0.782207
1059.12	0.780602
1060.3	0.779686
1061.49	0.776922
1062.67	0.770407
1063.86	0.762338
1065.04	0.750809
1066.23	0.738092
1067.41	0.727208
1068.6	0.717973
1069.78	0.705757
1070.97	0.693943
1072.15	0.683914
1073.34	0.67112
1074.52	0.657229
1075.71	0.643662
1076.89	0.629902
1078.08	0.614325
1079.26	0.600307
1080.45	0.591822
1081.63	0.581472
1082.82	0.570874
1084	0.564475
1085.19	0.553663
1086.37	0.545025
1087.56	0.53568
1088.74	0.530908
1089.93	0.524873
1091.11	0.520023
1092.3	0.516603
1093.48	0.507958
1094.67	0.502923
1095.85	0.502168
1097.04	0.498327
1098.22	0.491762
1099.41	0.484992
1100.59	0.48205
1101.78	0.477578
1102.96	0.474974
1104.15	0.467494
1105.33	0.465026
1106.52	0.460215
1107.7	0.453737
1108.89	0.448638
1110.07	0.442514
1111.26	0.442281
1112.44	0.437959
1113.63	0.43032
1114.81	0.426329
1116	0.421884
1117.18	0.416471
1118.37	0.407293
1119.55	0.396743
1120.74	0.382706
1121.92	0.373894
1123.11	0.361529
1124.29	0.346934
1125.48	0.330375
1126.66	0.312057
1127.85	0.293021
1129.03	0.273091
1130.22	0.254108
1131.4	0.236051
1132.59	0.213892
1133.77	0.19279
1134.96	0.177127
1136.14	0.160426
1137.33	0.145918
1138.51	0.132871
1139.7	0.118894
1140.88	0.106779
1142.07	0.0984861
1143.25	0.09171
1144.44	0.0822715
1145.62	0.0768842
1146.81	0.0677023
1147.99	0.0602628
1149.18	0.054789
1150.36	0.0511751
1151.55	0.0502682
1152.73	0.0458382
1153.92	0.0442355
1155.1	0.042042
1156.29	0.0391511
1157.47	0.0357165
1158.66	0.0311136
1159.84	0.0271884
1161.03	0.0245764
1162.21	0.023738
1163.4	0.0205115
1164.58	0.0203669
1165.77	0.0187328
1166.95	0.0169365
1168.14	0.0154832
1169.32	0.0116961
1170.51	0.0080277
1171.69	0.00474436
1172.88	0.00142499
1174.06	0.0013544
1175.25	0.00238407
1176.43	0.003325
1177.62	0.0013112
1178.8	-0.0010507
1179.99	-0.000842616
1181.17	-0.00139285
1182.36	0.00111966
1183.54	0.00309914
1184.73	0.0028831
1185.91	0.0033634
1187.1	0.0030151
1188.28	0.0044688
1189.47	0.00578663
1190.65	0.00731295
1191.84	0.00755279
1193.02	0.00615255
1194.21	0.00553238
1195.39	0.0099688
1196.58	0.0126336
1197.76	0.0146419
1198.95	0.0176648
1200.13	0.0196304
1201.32	0.0238976
1202.5	0.0285333
1203.69	0.0323257
1204.87	0.0331362
1206.06	0.0361781
1207.24	0.0400641
1208.43	0.0441099
1209.61	0.0454171
1210.8	0.0488965
1211.98	0.0487145
1213.17	0.0483287
1214.35	0.0483162
1215.54	0.0459531
1216.72	0.0430639
1217.91	0.0417604
1219.09	0.0374871
1220.28	0.03408
1221.46	0.0324629
1222.65	0.0363065
1223.83	0.0329768
1225.02	0.0303964
1226.2	0.0301404
1227.39	0.0305501
1228.57	0.0307133
1229.76	0.0343322
1230.94	0.0365
1232.13	0.0406367
1233.31	0.0467631
1234.5	0.0524629
1235.68	0.0527688
1236.87	0.0609693
1238.05	0.065222
1239.24	0.0695073
1240.42	0.071211
1241.61	0.0763341
1242.79	0.0793162
1243.98	0.0840943
1245.16	0.0878257
1246.35	0.0928973
1247.53	0.0951666
1248.72	0.0958642
1249.9	0.0973006
1251.09	0.0994932
1252.27	0.102198
1253.46	0.104527
1254.64	0.107241
1255.83	0.111065
1257.01	0.113394
1258.2	0.115415
1259.38	0.116549
1260.57	0.115797
1261.75	0.1145
1262.94	0.116266
1264.12	0.116548
1265.31	0.116739
1266.49	0.118224
1267.68	0.117848
1268.86	0.117302
1270.05	0.116283
1271.23	0.116322
1272.42	0.113584
1273.6	0.109772
1274.79	0.104807
1275.97	0.101571
1277.16	0.100777
1278.34	0.10036
1279.53	0.101866
1280.71	0.0968273
1281.9	0.0951163
1283.08	0.0937013
1284.27	0.0921961
1285.45	0.0903152
1286.64	0.0871168
1287.82	0.087533
1289.01	0.0800754
1290.19	0.0726865
1291.38	0.073499
1292.56	0.0751756
1293.75	0.0741868
1294.93	0.0727377
1296.12	0.0711029
1297.3	0.0682166
1298.49	0.0687774
1299.67	0.068505
1300.86	0.0670319
1302.04	0.067837
1303.23	0.069036
1304.41	0.0699127
1305.6	0.0697701
1306.78	0.0739146
1307.97	0.0795476
1309.15	0.0822554
1310.34	0.0854081
1311.52	0.0884135
1312.71	0.091299
1313.89	0.0922789
1315.08	0.0923745
1316.26	0.0927731
1317.45	0.0936111
1318.63	0.0935035
1319.82	0.0923624
1321	0.0922331
1322.19	0.0917548
1323.37	0.093805
1324.56	0.0901112
1325.74	0.085897
1326.93	0.0838509
1328.11	0.0818028
1329.3	0.0795317
1330.48	0.0770323
1331.67	0.0775765
1332.85	0.0757522
1334.04	0.0748658
1335.22	0.0719022
1336.41	0.0681908
1337.59	0.0669725
1338.78	0.0648138
1339.96	0.0657302
1341.15	0.0630647
1342.33	0.0628401
1343.52	0.0603856
1344.7	0.0590457
1345.89	0.0579392
1347.07	0.0564192
1348.26	0.0551133
1349.44	0.0552201
1350.63	0.0552406
1351.81	0.0555169
1353	0.0560496
1354.18	0.0566624
1355.37	0.0575941
1356.55	0.0542057
1357.74	0.0539168
1358.92	0.054712
1360.11	0.0581951
1361.29	0.0562713
1362.48	0.0555387
1363.66	0.0533997
1364.85	0.0533608
1366.03	0.0551746
1367.22	0.0564678
1368.4	0.0572857
1369.59	0.0572052
1370.77	0.0588869
1371.96	0.0588722
1373.14	0.0602583
1374.33	0.0657876
1375.51	0.0680557
1376.7	0.0677695
1377.88	0.0698461
1379.07	0.0720293
1380.25	0.0731696
1381.44	0.0750434
1382.62	0.0748699
1383.81	0.0725997
1384.99	0.0702101
1386.18	0.0684874
1387.36	0.0693032
1388.55	0.0685
1389.73	0.0698935
1390.92	0.0683573
1392.1	0.0671805
1393.29	0.0694495
1394.47	0.0671909
1395.66	0.0634253
1396.84	0.0609853
1398.03	0.0598639
1399.21	0.0591077
1400.4	0.0580632
1401.58	0.0590542
1402.77	0.0619484
1403.95	0.0620306
1405.14	0.0601951
1406.32	0.0597616
1407.51	0.0566002
1408.69	0.0558739
1409.88	0.0558651
1411.06	0.0557875
1412.25	0.0566243
1413.43	0.060898
1414.62	0.0642078
1415.8	0.066127
1416.99	0.064119
1418.17	0.0643933
1419.36	0.0629564
1420.54	0.0618176
1421.73	0.065908
1422.91	0.0661123
1424.1	0.0697128
1425.28	0.0721127
1426.47	0.0703643
1427.65	0.0721853
1428.84	0.0748812
1430.02	0.0745447
1431.21	0.0724188
1432.39	0.0711571
1433.58	0.0734699
1434.76	0.076241
1435.95	0.0777594
1437.13	0.081054
1438.32	0.0827251
1439.5	0.0848201
1440.69	0.0869251
1441.87	0.0922396
1443.06	0.0995036
1444.24	0.108705
1445.43	0.115906
1446.61	0.123809
1447.8	0.136953
1448.98	0.149498
1450.17	0.163964
1451.35	0.177976
1452.54	0.196089
1453.72	0.210272
1454.91	0.226226
1456.09	0.245488
1457.28	0.265858
1458.46	0.285153
1459.65	0.302132
1460.83	0.316986
1462.02	0.33185
1463.2	0.348342
1464.39	0.359722
1465.57	0.370818
1466.76	0.380973
1467.94	0.390744
1469.13	0.395546
1470.31	0.400362
1471.5	0.405306
1472.68	0.40257
1473.87	0.395826
1475.05	0.386786
1476.24	0.374991
1477.42	0.36332
1478.61	0.349778
1479.79	0.333434
1480.98	0.31644
1482.16	0.29903
1483.35	0.278948
1484.53	0.257734
1485.72	0.23609
1486.9	0.21551
1488.09	0.192116
1489.27	0.171407
1490.46	0.152489
1491.64	0.135923
1492.83	0.120685
1494.01	0.105463
1495.2	0.0917563
1496.38	0.0805662
1497.57	0.072014
1498.75	0.0651441
1499.94	0.0573386
1501.12	0.0491267
1502.31	0.0441754
1503.49	0.0396841
1504.68	0.0370436
1505.86	0.0361148
1507.05	0.0342323
1508.23	0.0333177
1509.42	0.0310949
1510.6	0.0321141
1511.79	0.0334729
1512.97	0.0325232
1514.16	0.0316585
1515.34	0.02981
1516.53	0.0279393
1517.71	0.0311487
1518.9	0.0304917
1520.08	0.0295739
1521.27	0.027732
1522.45	0.0255324
1523.64	0.0253101
1524.82	0.0225027
1526.01	0.0221291
1527.19	0.0192802
1528.38	0.0160105
1529.56	0.0155406
1530.75	0.0145402
1531.93	0.0128574
1533.12	0.0145556
1534.3	0.0133277
1535.49	0.0125918
1536.67	0.0113677
1537.86	0.0115205
1539.04	0.0120849
1540.23	0.0113335
1541.41	0.0129361
1542.6	0.0129434
1543.78	0.013524
1544.97	0.012353
1546.15	0.0117555
1547.34	0.0110172
1548.52	0.010583
1549.71	0.00892401
1550.89	0.00620122
1552.08	0.00614038
1553.26	0.00661472
1554.45	0.00609495
1555.63	0.00376692
1556.82	0.00334769
1558	0.00177172
1559.19	9.20479e-005
1560.37	-0.000995776
1561.56	-0.000174869
1562.74	0.000980425
1563.93	-0.000396497
1565.11	-0.00113805
1566.3	-0.000581346
1567.48	0.000616195
1568.67	0.000252036
1569.85	0.000243718
1571.04	0.00022281
1572.22	0.00125261
1573.41	0.00172316
1574.59	0.00172995
1575.78	0.00117405
1576.96	0.00217003
1578.15	0.00106523
1579.33	0.000277078
1580.52	0.00129643
1581.7	0.00423858
1582.89	0.00450176
1584.07	0.00511363
1585.26	0.00535929
1586.44	0.00451633
1587.63	0.004579
1588.81	0.00441885
1590	0.00406341
1591.18	0.00528412
1592.37	0.00664785
1593.55	0.00737496
1594.74	0.00858312
1595.92	0.00914639
1597.11	0.00934529
1598.29	0.00870544
1599.48	0.00689429
1600.66	0.00709432
1601.85	0.00709666
1603.03	0.0074978
1604.22	0.0074226
1605.4	0.00712194
1606.59	0.00728773
1607.77	0.00607322
1608.96	0.00518916
1610.14	0.00365569
1611.33	0.0045576
1612.51	0.0051608
1613.7	0.00476171
1614.88	0.00280957
1616.07	0.0035756
1617.25	0.00155338
1618.44	0.00188708
1619.62	0.00217359
1620.81	0.00197824
1621.99	0.0017577
1623.18	0.00155567
1624.36	0.0027357
1625.55	0.00235531
1626.73	0.00315781
1627.92	0.00101213
1629.1	-0.00135204
1630.29	-0.00072974
1631.47	0.000737949
1632.66	0.00214953
1633.84	0.00196634
1635.03	0.000567875
1636.21	0.00111222
1637.4	0.00183102
1638.58	0.00337382
1639.77	0.00196267
1640.95	0.00150638
1642.14	0.00161138
1643.32	0.00153606
1644.51	0.00450759
1645.69	0.00482055
1646.88	0.00470432
1648.06	0.0051724
1649.25	0.00707338
1650.43	0.00885448
1651.62	0.0135005
1652.8	0.013575
1653.99	0.0163877
1655.17	0.0151865
1656.36	0.0192407
1657.54	0.021472
1658.73	0.0244811
1659.91	0.0256086
1661.1	0.0241198
1662.28	0.0254664
1663.47	0.0281285
1664.65	0.0281372
1665.84	0.0272245
1667.02	0.0277886
1668.21	0.0261309
1669.39	0.0270901
1670.58	0.028722
1671.76	0.0324117
1672.95	0.0321769
1674.13	0.0323329
1675.32	0.0318553
1676.5	0.0322943
1677.69	0.0328061
1678.87	0.0322839
1680.06	0.0311639
1681.24	0.0309523
1682.43	0.0329461
1683.61	0.03451
1684.8	0.0347227
1685.98	0.0346626
1687.17	0.0342117
1688.35	0.0326416
1689.54	0.0327282
1690.72	0.0334422
1691.91	0.0351518
1693.09	0.03653
1694.28	0.0383899
1695.46	0.0399202
1696.65	0.0410439
1697.83	0.0425433
1699.02	0.0439221
1700.2	0.0430124
1701.39	0.0442385
1702.57	0.0467008
1703.76	0.0454071
1704.94	0.0450005
1706.13	0.0460282
1707.31	0.0462526
1708.5	0.0464055
1709.68	0.0477308
1710.87	0.048862
1712.05	0.0514122
1713.24	0.0524324
1714.42	0.0539662
1715.61	0.0540795
1716.79	0.0577202
1717.98	0.0592003
1719.16	0.05989
1720.35	0.0618563
1721.53	0.0636405
1722.72	0.0624218
1723.9	0.0624708
1725.09	0.0630989
1726.27	0.0642135
1727.46	0.0624977
1728.64	0.0619586
1729.83	0.0613287
1731.01	0.0614413
1732.2	0.0601435
1733.38	0.0579935
1734.57	0.0556289
1735.75	0.0541726
1736.94	0.0543623
1738.12	0.0527851
1739.31	0.0536202
1740.49	0.0540517
1741.68	0.051981
1742.86	0.0508124
1744.05	0.0527444
1745.23	0.0517672
1746.42	0.0518613
1747.6	0.0499692
1748.79	0.0508736
1749.97	0.0512719
1751.16	0.052453
1752.34	0.0521165
1753.53	0.0525736
1754.71	0.0534499
1755.9	0.052127
1757.08	0.0496302
1758.27	0.049262
1759.45	0.0471723
1760.64	0.0459275
1761.82	0.044455
1763.01	0.0438452
1764.19	0.0426738
1765.38	0.0405598
1766.56	0.0390799
1767.75	0.0367631
1768.93	0.0366724
1770.12	0.0357427
1771.3	0.0346689
1772.49	0.033095
1773.67	0.032238
1774.86	0.0306686
1776.04	0.0294409
1777.23	0.0271179
1778.41	0.0265681
1779.6	0.02656
1780.78	0.0252078
1781.97	0.0231151
1783.15	0.0216652
1784.34	0.0211534
1785.52	0.0182847
1786.71	0.0145561
1787.89	0.0118805
1789.08	0.0101641
1790.26	0.00866249
1791.45	0.00887571
1792.63	0.00859127
1793.82	0.00700123
1795	0.00442112
