405	-0.0105657
406.185	-0.00543097
407.37	0.00152998
408.555	0.0117067
409.74	0.023547
410.925	0.0369884
412.11	0.0530617
413.295	0.071421
414.48	0.0903344
415.665	0.109045
416.85	0.125674
418.035	0.143484
419.22	0.163301
420.405	0.186984
421.59	0.212577
422.775	0.233099
423.96	0.251451
425.145	0.268651
426.33	0.282623
427.515	0.296169
428.7	0.303896
429.885	0.314005
431.07	0.321875
432.255	0.325515
433.44	0.321166
434.625	0.313112
435.81	0.305288
436.995	0.296819
438.18	0.286088
439.365	0.272653
440.55	0.254646
441.735	0.236423
442.92	0.222008
444.105	0.206014
445.29	0.191015
446.475	0.174231
447.66	0.157239
448.845	0.142155
450.03	0.129036
451.215	0.115578
452.4	0.102121
453.585	0.0946971
454.77	0.0844868
455.955	0.077552
457.14	0.0720653
458.325	0.0625442
459.51	0.0581321
460.695	0.0552835
461.88	0.0530788
463.065	0.0520616
464.25	0.0537675
465.435	0.0591335
466.62	0.0635165
467.805	0.0734337
468.99	0.0821638
470.175	0.0929111
471.36	0.108264
472.545	0.123577
473.73	0.143759
474.915	0.166965
476.1	0.193588
477.285	0.22507
478.47	0.258162
479.655	0.290688
480.84	0.32558
482.025	0.358522
483.21	0.398154
484.395	0.437584
485.58	0.478171
486.765	0.521045
487.95	0.563345
489.135	0.601317
490.32	0.637348
491.505	0.673659
492.69	0.704966
493.875	0.732146
495.06	0.756789
496.245	0.771657
497.43	0.789781
498.615	0.801069
499.8	0.805721
500.985	0.807479
502.17	0.800652
503.355	0.787606
504.54	0.771571
505.725	0.748757
506.91	0.72044
508.095	0.686482
509.28	0.654447
510.465	0.619334
511.65	0.582954
512.835	0.547021
514.02	0.510244
515.205	0.476325
516.39	0.438789
517.575	0.398548
518.76	0.361471
519.945	0.32795
521.13	0.299382
522.315	0.272641
523.5	0.240189
524.685	0.220575
525.87	0.201169
527.055	0.187522
528.24	0.173468
529.425	0.160424
530.61	0.150641
531.795	0.141381
532.98	0.131993
534.165	0.124952
535.35	0.118944
536.535	0.115937
537.72	0.115878
538.905	0.118551
540.09	0.119235
541.275	0.119306
542.46	0.122704
543.644	0.123999
544.829	0.126018
546.014	0.129255
547.199	0.133571
548.384	0.137631
549.569	0.13883
550.754	0.143147
551.939	0.149692
553.124	0.155137
554.309	0.158401
555.494	0.164527
556.679	0.166185
557.865	0.164681
559.049	0.163506
560.234	0.166404
561.419	0.172753
562.604	0.176475
563.789	0.174608
564.974	0.171461
566.159	0.167709
567.344	0.163949
568.529	0.161244
569.714	0.157896
570.899	0.152033
572.084	0.145831
573.269	0.138235
574.454	0.133899
575.639	0.131495
576.824	0.128248
578.009	0.124008
579.194	0.118764
580.379	0.111279
581.564	0.103191
582.749	0.100149
583.934	0.0982021
585.119	0.0919067
586.304	0.0885926
587.489	0.0852399
588.674	0.0785761
589.859	0.0731967
591.044	0.0677139
592.229	0.0634068
593.414	0.0586701
594.599	0.0528419
595.784	0.0496753
596.969	0.0484941
598.154	0.0471863
599.339	0.0399028
600.524	0.0359499
601.709	0.0331289
602.894	0.0310166
604.079	0.0314573
605.264	0.0290432
606.449	0.0264689
607.634	0.0266054
608.819	0.026873
610.004	0.0263433
611.189	0.0264004
612.374	0.0259347
613.559	0.0233325
614.744	0.0192212
615.929	0.0165269
617.114	0.0128465
618.299	0.0157806
619.484	0.011552
620.669	0.00844463
621.854	0.00353088
623.039	-0.000787745
624.224	-0.00250738
625.409	-0.00358251
626.594	-0.00627738
627.779	-0.00768642
628.964	-0.0061175
630.149	-0.00613541
631.334	-0.00654392
632.519	-0.00588033
633.704	-0.00287453
634.889	-0.000323976
636.074	-0.00167344
637.259	-0.00351653
638.444	-0.00165804
639.629	0.00181068
640.814	0.00554641
641.999	0.00843261
643.184	0.00885875
644.369	0.00895016
645.554	0.0121791
646.739	0.0167368
647.924	0.0182496
649.109	0.0187921
650.294	0.0226323
651.479	0.0253116
652.664	0.0279689
653.849	0.0315421
655.034	0.0375813
656.219	0.0435425
657.404	0.0492535
658.589	0.0509398
659.774	0.0517117
660.959	0.0543058
662.144	0.0598638
663.329	0.0675327
664.514	0.0742513
665.699	0.0785657
666.884	0.0830978
668.069	0.0905655
669.254	0.0963746
670.439	0.108315
671.624	0.118032
672.809	0.124955
673.994	0.133574
675.179	0.143273
676.364	0.15309
677.549	0.161403
678.734	0.169649
679.919	0.176934
681.104	0.182525
682.289	0.186422
683.474	0.187861
684.659	0.188954
685.844	0.192227
687.029	0.190155
688.214	0.184844
689.399	0.172979
690.584	0.163912
691.769	0.153578
692.954	0.146412
694.139	0.134484
695.324	0.12097
696.509	0.110252
697.694	0.0993246
698.879	0.0897709
700.064	0.0800575
701.249	0.068478
702.434	0.0582423
703.619	0.0494917
704.804	0.0399143
705.989	0.0336568
707.174	0.026623
708.359	0.0241383
709.544	0.0194141
710.729	0.0190559
711.914	0.0123223
713.099	0.00942186
714.284	0.00799725
715.469	0.00661317
716.654	0.00503674
717.839	0.00303373
719.024	0.00337266
720.209	0.00380716
721.394	0.00279056
722.579	0.00217176
723.764	0.00173577
724.949	0.000962335
726.134	0.000968988
727.319	-0.000310776
728.504	0.00235968
729.689	0.0013817
730.874	0.0023444
732.059	0.00215614
733.244	0.00271704
734.429	0.00577521
735.614	0.00828558
736.799	0.00970836
737.984	0.00751155
739.169	0.00618618
740.354	0.00630576
741.539	0.00404922
742.724	0.00320723
743.909	0.00514463
745.094	0.00758106
746.279	0.00888366
747.464	0.00726182
748.649	0.00714539
749.834	0.00511128
751.019	0.00553644
752.204	0.00428639
753.389	0.000804181
754.574	-0.000132166
755.759	-0.000593954
756.944	0.000625025
758.129	0.00191014
759.314	0.00190935
760.499	0.00336685
761.684	0.000313319
762.869	-0.00219619
764.054	-0.00317868
765.239	-0.0026078
766.424	-0.00143311
767.609	-0.00129873
768.794	-0.00190694
769.979	-0.00209942
771.164	-0.00160114
772.349	-0.00181686
773.534	-0.00033314
774.719	-0.00152444
775.904	-0.00246407
777.089	0.00251828
778.274	0.00479248
779.459	0.00354505
780.644	0.0086114
781.829	0.00978988
783.014	0.00956961
784.199	0.00903507
785.384	0.00955527
786.569	0.0088822
787.754	0.0101416
788.939	0.0107961
790.124	0.0118029
791.309	0.0117833
792.494	0.0107337
793.679	0.0122206
794.864	0.0128974
796.049	0.0114656
797.234	0.0133387
798.419	0.0176779
799.604	0.0169708
800.789	0.0221017
801.974	0.0252612
803.159	0.0301881
804.344	0.0385904
805.529	0.0528614
806.714	0.0643952
807.899	0.0801926
809.084	0.099141
810.269	0.120364
811.454	0.141932
812.639	0.165698
813.824	0.190037
815.009	0.218148
816.194	0.248572
817.379	0.280181
818.564	0.310857
819.748	0.33892
820.933	0.366142
822.118	0.391195
823.303	0.414758
824.488	0.437811
825.673	0.455625
826.858	0.47088
828.043	0.485085
829.228	0.494521
830.413	0.503005
831.598	0.509924
832.784	0.517445
833.969	0.520778
835.154	0.526666
836.339	0.534671
837.523	0.546546
838.708	0.563888
839.893	0.582908
841.078	0.603936
842.263	0.624758
843.448	0.650653
844.633	0.680434
845.818	0.710936
847.003	0.744415
848.188	0.779793
849.373	0.814149
850.558	0.845509
851.743	0.87161
852.928	0.894386
854.113	0.913466
855.298	0.93203
856.483	0.941537
857.668	0.945639
858.853	0.948225
860.038	0.942001
861.223	0.931915
862.408	0.916527
863.593	0.901138
864.778	0.874158
865.963	0.842142
867.148	0.809538
868.333	0.774387
869.518	0.742149
870.703	0.708689
871.888	0.676022
873.073	0.639496
874.258	0.603069
875.443	0.567263
876.628	0.529487
877.813	0.492914
878.998	0.458486
880.183	0.423949
881.368	0.388901
882.553	0.3568
883.738	0.329392
884.923	0.303058
886.108	0.278344
887.293	0.255511
888.478	0.235121
889.663	0.217611
890.848	0.200867
892.033	0.186511
893.218	0.174785
894.403	0.165946
895.588	0.160349
896.773	0.157114
897.958	0.158435
899.143	0.160124
900.328	0.163113
901.513	0.168464
902.698	0.175665
903.883	0.186341
905.068	0.198401
906.253	0.208723
907.438	0.220949
908.623	0.236771
909.808	0.252481
910.993	0.266108
912.178	0.280455
913.363	0.293546
914.548	0.306272
915.733	0.320092
916.918	0.333783
918.103	0.346878
919.288	0.358656
920.473	0.369536
921.658	0.378109
922.843	0.38239
924.028	0.386959
925.213	0.392122
926.398	0.394539
927.583	0.391772
928.768	0.389967
929.953	0.387215
931.138	0.380566
932.323	0.37212
933.508	0.358866
934.693	0.344905
935.878	0.330075
937.063	0.316506
938.248	0.297028
939.433	0.280697
940.618	0.262778
941.803	0.242903
942.988	0.222281
944.173	0.202752
945.358	0.185158
946.543	0.166674
947.728	0.150461
948.913	0.134824
950.098	0.121583
951.283	0.112024
952.468	0.10303
953.653	0.0939306
954.838	0.0838956
956.023	0.0778764
957.208	0.0728843
958.393	0.0715563
959.578	0.0721683
960.763	0.0728891
961.948	0.0734445
963.133	0.0745035
964.318	0.0769237
965.503	0.0816013
966.688	0.0884858
967.873	0.0960888
969.058	0.103149
970.243	0.108211
971.428	0.113956
972.613	0.122375
973.798	0.130077
974.983	0.136056
976.168	0.13991
977.353	0.142013
978.538	0.14497
979.723	0.148882
980.908	0.149004
982.093	0.148148
983.278	0.147567
984.463	0.143166
985.648	0.139007
986.833	0.135523
988.018	0.131284
989.203	0.128141
990.388	0.124464
991.573	0.118999
992.758	0.115619
993.943	0.111532
995.128	0.109064
996.313	0.107899
997.498	0.103309
998.683	0.103376
999.868	0.102132
1001.05	0.0998636
1002.24	0.100097
1003.42	0.0989502
1004.61	0.0981357
1005.79	0.0978174
1006.98	0.101635
1008.16	0.104817
1009.35	0.107365
1010.53	0.111355
1011.72	0.116579
1012.9	0.120108
1014.09	0.125016
1015.27	0.133284
1016.46	0.141901
1017.64	0.153019
1018.83	0.164108
1020.01	0.173968
1021.2	0.185776
1022.38	0.20061
1023.57	0.21866
1024.75	0.233494
1025.94	0.247727
1027.12	0.265202
1028.31	0.284197
1029.49	0.303774
1030.68	0.325998
1031.86	0.35045
1033.05	0.37404
1034.23	0.396544
1035.42	0.420628
1036.6	0.448462
1037.79	0.476827
1038.97	0.504078
1040.16	0.530676
1041.34	0.554386
1042.53	0.579218
1043.71	0.60645
1044.9	0.632625
1046.08	0.658546
1047.27	0.683062
1048.45	0.705297
1049.64	0.724037
1050.82	0.740187
1052.01	0.75452
1053.19	0.766414
1054.38	0.773414
1055.56	0.777386
1056.75	0.782115
1057.93	0.786168
1059.12	0.787122
1060.3	0.785026
1061.49	0.780944
1062.67	0.777819
1063.86	0.768598
1065.04	0.758911
1066.23	0.748846
1067.41	0.736594
1068.6	0.724656
1069.78	0.712406
1070.97	0.697436
1072.15	0.682835
1073.34	0.670096
1074.52	0.657811
1075.71	0.641366
1076.89	0.627252
1078.08	0.617282
1079.26	0.606852
1080.45	0.59328
1081.63	0.580406
1082.82	0.568428
1084	0.555211
1085.19	0.544582
1086.37	0.534637
1087.56	0.524716
1088.74	0.517801
1089.93	0.510807
1091.11	0.501876
1092.3	0.491675
1093.48	0.484661
1094.67	0.479884
1095.85	0.472694
1097.04	0.464443
1098.22	0.457748
1099.41	0.453086
1100.59	0.447097
1101.78	0.444843
1102.96	0.443386
1104.15	0.440982
1105.33	0.438834
1106.52	0.436542
1107.7	0.436538
1108.89	0.438685
1110.07	0.440084
1111.26	0.441085
1112.44	0.439515
1113.63	0.436359
1114.81	0.429537
1116	0.420636
1117.18	0.413766
1118.37	0.406715
1119.55	0.394129
1120.74	0.377548
1121.92	0.361686
1123.11	0.350178
1124.29	0.332272
1125.48	0.309646
1126.66	0.289008
1127.85	0.268504
1129.03	0.245352
1130.22	0.220893
1131.4	0.199588
1132.59	0.179503
1133.77	0.161399
1134.96	0.140289
1136.14	0.120261
1137.33	0.105259
1138.51	0.0912488
1139.7	0.0755308
1140.88	0.0580373
1142.07	0.04534
1143.25	0.0399227
1144.44	0.0297051
1145.62	0.0214308
1146.81	0.0149926
1147.99	0.0120663
1149.18	0.00587502
1150.36	0.00263287
1151.55	-0.00170351
1152.73	-0.0012183
1153.92	-0.00193166
1155.1	-0.00546422
1156.29	-0.00390054
1157.47	-0.00220614
1158.66	-0.000814044
1159.84	-0.000708369
1161.03	-0.00321542
1162.21	-0.000922762
1163.4	-0.000440483
1164.58	-0.00168942
1165.77	-0.00324818
1166.95	-0.0016141
1168.14	7.89157e-007
1169.32	0.000720908
1170.51	0.000932961
1171.69	0.00397509
1172.88	0.00649211
1174.06	0.00604324
1175.25	0.00522637
1176.43	0.00354006
1177.62	0.00577046
1178.8	0.00649404
1179.99	0.00522224
1181.17	0.00704964
1182.36	0.0113673
1183.54	0.013322
1184.73	0.0135485
1185.91	0.0144
1187.1	0.0150834
1188.28	0.0152306
1189.47	0.0143077
1190.65	0.0173011
1191.84	0.0222198
1193.02	0.0276613
1194.21	0.0326387
1195.39	0.035818
1196.58	0.0399075
1197.76	0.0432902
1198.95	0.0461498
1200.13	0.0491985
1201.32	0.0519178
1202.5	0.0552874
1203.69	0.0605158
1204.87	0.0642228
1206.06	0.0677118
1207.24	0.0725005
1208.43	0.0753133
1209.61	0.0750426
1210.8	0.0754663
1211.98	0.0780882
1213.17	0.0793887
1214.35	0.0811732
1215.54	0.0822001
1216.72	0.0821563
1217.91	0.0810366
1219.09	0.0839593
1220.28	0.0836347
1221.46	0.0834001
1222.65	0.0856707
1223.83	0.085442
1225.02	0.086826
1226.2	0.0891405
1227.39	0.0953083
1228.57	0.0975986
1229.76	0.100041
1230.94	0.105177
1232.13	0.106374
1233.31	0.110135
1234.5	0.113889
1235.68	0.123187
1236.87	0.128862
1238.05	0.137643
1239.24	0.144751
1240.42	0.151224
1241.61	0.157255
1242.79	0.163905
1243.98	0.167663
1245.16	0.174108
1246.35	0.180697
1247.53	0.183987
1248.72	0.190403
1249.9	0.196685
1251.09	0.202071
1252.27	0.206995
1253.46	0.206234
1254.64	0.207933
1255.83	0.21017
1257.01	0.209969
1258.2	0.211559
1259.38	0.210925
1260.57	0.207915
1261.75	0.205136
1262.94	0.203777
1264.12	0.20331
1265.31	0.201565
1266.49	0.198904
1267.68	0.199838
1268.86	0.199058
1270.05	0.201161
1271.23	0.204465
1272.42	0.202725
1273.6	0.20191
1274.79	0.200895
1275.97	0.200971
1277.16	0.199237
1278.34	0.201037
1279.53	0.199855
1280.71	0.200527
1281.9	0.201997
1283.08	0.201846
1284.27	0.205243
1285.45	0.204785
1286.64	0.20014
1287.82	0.193374
1289.01	0.192089
1290.19	0.18916
1291.38	0.187419
1292.56	0.184287
1293.75	0.185828
1294.93	0.186417
1296.12	0.185313
1297.3	0.184878
1298.49	0.181759
1299.67	0.180217
1300.86	0.176666
1302.04	0.170848
1303.23	0.168593
1304.41	0.170532
1305.6	0.16987
1306.78	0.168895
1307.97	0.171807
1309.15	0.175669
1310.34	0.176327
1311.52	0.174724
1312.71	0.177183
1313.89	0.179364
1315.08	0.179642
1316.26	0.180968
1317.45	0.183759
1318.63	0.185049
1319.82	0.186872
1321	0.189328
1322.19	0.192562
1323.37	0.192695
1324.56	0.191055
1325.74	0.190867
1326.93	0.187443
1328.11	0.184678
1329.3	0.181039
1330.48	0.177145
1331.67	0.177171
1332.85	0.1756
1334.04	0.171655
1335.22	0.168115
1336.41	0.167009
1337.59	0.163769
1338.78	0.163001
1339.96	0.16092
1341.15	0.162335
1342.33	0.161801
1343.52	0.160354
1344.7	0.160622
1345.89	0.164061
1347.07	0.165121
1348.26	0.163789
1349.44	0.165061
1350.63	0.16896
1351.81	0.171898
1353	0.174082
1354.18	0.175532
1355.37	0.175592
1356.55	0.171695
1357.74	0.173041
1358.92	0.173532
1360.11	0.172383
1361.29	0.174981
1362.48	0.174079
1363.66	0.175523
1364.85	0.178304
1366.03	0.178758
1367.22	0.178605
1368.4	0.174712
1369.59	0.175835
1370.77	0.175893
1371.96	0.175268
1373.14	0.175162
1374.33	0.179663
1375.51	0.176341
1376.7	0.174815
1377.88	0.176565
1379.07	0.179058
1380.25	0.18171
1381.44	0.181195
1382.62	0.179357
1383.81	0.176624
1384.99	0.17414
1386.18	0.1743
1387.36	0.173927
1388.55	0.176193
1389.73	0.17753
1390.92	0.173991
1392.1	0.175028
1393.29	0.181291
1394.47	0.177422
1395.66	0.175493
1396.84	0.171462
1398.03	0.16976
1399.21	0.169796
1400.4	0.169962
1401.58	0.172475
1402.77	0.174016
1403.95	0.171016
1405.14	0.168495
1406.32	0.165937
1407.51	0.164664
1408.69	0.162083
1409.88	0.159151
1411.06	0.157105
1412.25	0.157678
1413.43	0.15911
1414.62	0.157244
1415.8	0.15557
1416.99	0.155298
1418.17	0.153536
1419.36	0.151238
1420.54	0.149733
1421.73	0.147926
1422.91	0.149169
1424.1	0.152207
1425.28	0.155437
1426.47	0.157081
1427.65	0.159308
1428.84	0.162214
1430.02	0.162553
1431.21	0.164947
1432.39	0.167861
1433.58	0.170883
1434.76	0.173878
1435.95	0.177629
1437.13	0.183684
1438.32	0.190776
1439.5	0.196376
1440.69	0.197957
1441.87	0.201376
1443.06	0.206445
1444.24	0.214835
1445.43	0.222924
1446.61	0.231796
1447.8	0.24066
1448.98	0.254657
1450.17	0.26865
1451.35	0.280789
1452.54	0.295214
1453.72	0.311011
1454.91	0.329691
1456.09	0.34767
1457.28	0.36778
1458.46	0.389766
1459.65	0.409978
1460.83	0.427689
1462.02	0.443942
1463.2	0.461452
1464.39	0.479098
1465.57	0.488967
1466.76	0.49919
1467.94	0.51032
1469.13	0.517429
1470.31	0.521742
1471.5	0.519489
1472.68	0.516841
1473.87	0.51341
1475.05	0.504274
1476.24	0.492035
1477.42	0.478533
1478.61	0.463265
1479.79	0.445848
1480.98	0.424429
1482.16	0.404568
1483.35	0.384106
1484.53	0.360119
1485.72	0.337476
1486.9	0.314112
1488.09	0.292799
1489.27	0.270233
1490.46	0.24738
1491.64	0.227961
1492.83	0.212872
1494.01	0.195796
1495.2	0.181571
1496.38	0.167232
1497.57	0.156351
1498.75	0.147033
1499.94	0.137467
1501.12	0.129095
1502.31	0.121988
1503.49	0.117424
1504.68	0.11241
1505.86	0.109404
1507.05	0.107845
1508.23	0.106228
1509.42	0.100966
1510.6	0.0987209
1511.79	0.0965583
1512.97	0.093798
1514.16	0.0901244
1515.34	0.089015
1516.53	0.0870815
1517.71	0.0870581
1518.9	0.0882
1520.08	0.0857477
1521.27	0.0819398
1522.45	0.0798559
1523.64	0.0775261
1524.82	0.0739108
1526.01	0.073303
1527.19	0.0718146
1528.38	0.0686391
1529.56	0.0702286
1530.75	0.0695147
1531.93	0.0642412
1533.12	0.0608537
1534.3	0.0579
1535.49	0.0552696
1536.67	0.0530949
1537.86	0.0546109
1539.04	0.0538414
1540.23	0.0523294
1541.41	0.0516576
1542.6	0.0496339
1543.78	0.0488571
1544.97	0.0494363
1546.15	0.0459967
1547.34	0.0452597
1548.52	0.046507
1549.71	0.0464966
1550.89	0.0480895
1552.08	0.0467148
1553.26	0.0468205
1554.45	0.0454214
1555.63	0.0441834
1556.82	0.0447647
1558	0.045075
1559.19	0.0448997
1560.37	0.0445654
1561.56	0.0427142
1562.74	0.0425852
1563.93	0.0415014
1565.11	0.0406042
1566.3	0.0403458
1567.48	0.0387418
1568.67	0.0383255
1569.85	0.0372614
1571.04	0.0359053
1572.22	0.0351349
1573.41	0.0330648
1574.59	0.0315227
1575.78	0.0303404
1576.96	0.0308353
1578.15	0.0313587
1579.33	0.0308909
1580.52	0.0305959
1581.7	0.0289561
1582.89	0.0288529
1584.07	0.027867
1585.26	0.0266006
1586.44	0.0259908
1587.63	0.0259333
1588.81	0.0264957
1590	0.0263051
1591.18	0.0258501
1592.37	0.0266661
1593.55	0.0268427
1594.74	0.0271083
1595.92	0.0271003
1597.11	0.0273599
1598.29	0.0289458
1599.48	0.0302707
1600.66	0.03078
1601.85	0.033684
1603.03	0.0347056
1604.22	0.0342836
1605.4	0.0328766
1606.59	0.0320916
1607.77	0.0313076
1608.96	0.0292558
1610.14	0.0257786
1611.33	0.0227776
1612.51	0.0215809
1613.7	0.0193153
1614.88	0.0170348
1616.07	0.0136309
1617.25	0.0110899
1618.44	0.00739334
1619.62	0.00598248
1620.81	0.00553559
1621.99	0.00474873
1623.18	0.0037561
1624.36	0.00398922
1625.55	0.00353523
1626.73	0.00254183
1627.92	0.000402522
1629.1	-0.000917205
1630.29	-0.00175291
1631.47	-0.00141755
1632.66	-0.00227084
1633.84	-0.002882
1635.03	-0.00301623
1636.21	-0.00526846
1637.4	-0.00765421
1638.58	-0.00622662
1639.77	-0.00502952
1640.95	-0.00563763
1642.14	-0.00423147
1643.32	-0.00182842
1644.51	0.000917415
1645.69	0.00171574
1646.88	0.00141582
1648.06	0.00158605
1649.25	0.00291157
1650.43	0.00133294
1651.62	-0.000201412
1652.8	-0.000869789
1653.99	0.000381586
1655.17	-0.000760149
1656.36	-0.00211768
1657.54	-0.00282129
1658.73	-0.003639
1659.91	-0.00387812
1661.1	-0.0050931
1662.28	-0.00245878
1663.47	0.00218084
1664.65	0.00388715
1665.84	0.00377854
1667.02	0.00630874
1668.21	0.00669476
1669.39	0.0101693
1670.58	0.0130649
1671.76	0.0154387
1672.95	0.0150908
1674.13	0.0155011
1675.32	0.0164633
1676.5	0.0154244
1677.69	0.0149181
1678.87	0.0128502
1680.06	0.0108991
1681.24	0.00942893
1682.43	0.0105937
1683.61	0.0123505
1684.8	0.0142445
1685.98	0.0131924
1687.17	0.0129411
1688.35	0.011806
1689.54	0.0126945
1690.72	0.0133381
1691.91	0.0143603
1693.09	0.0162195
1694.28	0.0175121
1695.46	0.0179979
1696.65	0.0152356
1697.83	0.0173562
1699.02	0.0142587
1700.2	0.0141804
1701.39	0.0157313
1702.57	0.015471
1703.76	0.0136798
1704.94	0.0141923
1706.13	0.0150642
1707.31	0.015082
1708.5	0.0157299
1709.68	0.0174515
1710.87	0.0186069
1712.05	0.0213814
1713.24	0.0252604
1714.42	0.0252858
1715.61	0.0284804
1716.79	0.0279965
1717.98	0.0275513
1719.16	0.0296351
1720.35	0.0311195
1721.53	0.0311177
1722.72	0.0323315
1723.9	0.0332214
1725.09	0.0324877
1726.27	0.0310741
1727.46	0.0300264
1728.64	0.0274885
1729.83	0.0261089
1731.01	0.0252551
1732.2	0.0259326
1733.38	0.0256707
1734.57	0.025792
1735.75	0.0254843
1736.94	0.0254055
1738.12	0.0257536
1739.31	0.0235653
1740.49	0.0224305
1741.68	0.0216486
1742.86	0.0221946
1744.05	0.0223903
1745.23	0.0207761
1746.42	0.0216143
1747.6	0.021858
1748.79	0.021748
1749.97	0.0223145
1751.16	0.0218765
1752.34	0.0208161
1753.53	0.0204881
1754.71	0.0202449
1755.9	0.0222589
1757.08	0.0215775
1758.27	0.0205855
1759.45	0.0183929
1760.64	0.0169165
1761.82	0.0177017
1763.01	0.0184511
1764.19	0.0176689
1765.38	0.0173219
1766.56	0.0189114
1767.75	0.0192621
1768.93	0.0197638
1770.12	0.0194494
1771.3	0.019083
1772.49	0.018613
1773.67	0.0200856
1774.86	0.0213607
1776.04	0.0223615
1777.23	0.022516
1778.41	0.0221172
1779.6	0.0189183
1780.78	0.0167707
1781.97	0.0137001
1783.15	0.0104989
1784.34	0.00920751
1785.52	0.00786
1786.71	0.00625884
1787.89	0.00408347
1789.08	0.00252455
1790.26	-8.57948e-006
1791.45	-0.00182063
1792.63	-0.00271491
1793.82	-0.00436832
1795	-0.00402802
