405	0.0815462
406.185	0.0796452
407.37	0.0853538
408.555	0.0931806
409.74	0.101734
410.925	0.110769
412.11	0.120119
413.295	0.129548
414.48	0.138457
415.665	0.146826
416.85	0.160352
418.035	0.171665
419.22	0.186294
420.405	0.201851
421.59	0.216578
422.775	0.226139
423.96	0.234237
425.145	0.241604
426.33	0.245644
427.515	0.24984
428.7	0.253837
429.885	0.253536
431.07	0.250805
432.255	0.245483
433.44	0.237498
434.625	0.232091
435.81	0.224066
436.995	0.212545
438.18	0.197738
439.365	0.179221
440.55	0.164894
441.735	0.149613
442.92	0.137025
444.105	0.125465
445.29	0.109587
446.475	0.0950628
447.66	0.0809293
448.845	0.0680396
450.03	0.0577715
451.215	0.0491604
452.4	0.040594
453.585	0.0329305
454.77	0.0246631
455.955	0.0133544
457.14	0.00693794
458.325	0.000711879
459.51	-0.00500296
460.695	-0.00683491
461.88	-0.00748099
463.065	-0.00968298
464.25	-0.0105657
465.435	-0.00783975
466.62	-0.00730571
467.805	-0.00365123
468.99	0.0035852
470.175	0.0093018
471.36	0.0208995
472.545	0.038894
473.73	0.0544216
474.915	0.0717841
476.1	0.0923357
477.285	0.114765
478.47	0.140554
479.655	0.166115
480.84	0.191403
482.025	0.226438
483.21	0.257584
484.395	0.290862
485.58	0.326738
486.765	0.361444
487.95	0.392906
489.135	0.425737
490.32	0.459365
491.505	0.486321
492.69	0.506591
493.875	0.529486
495.06	0.549432
496.245	0.560319
497.43	0.568681
498.615	0.577063
499.8	0.580959
500.985	0.575115
502.17	0.564463
503.355	0.549961
504.54	0.531463
505.725	0.512128
506.91	0.49111
508.095	0.47081
509.28	0.43868
510.465	0.406395
511.65	0.378095
512.835	0.347564
514.02	0.31605
515.205	0.288075
516.39	0.261404
517.575	0.232486
518.76	0.202296
519.945	0.175153
521.13	0.15402
522.315	0.136813
523.5	0.119238
524.685	0.101023
525.87	0.0863502
527.055	0.0708855
528.24	0.0588956
529.425	0.0509458
530.61	0.0426828
531.795	0.0351852
532.98	0.0308311
534.165	0.0271047
535.35	0.0231702
536.535	0.0231917
537.72	0.0208556
538.905	0.0259437
540.09	0.0245838
541.275	0.0207863
542.46	0.0224879
543.644	0.0278836
544.829	0.0305454
546.014	0.032704
547.199	0.0376571
548.384	0.0428775
549.569	0.0469556
550.754	0.0530744
551.939	0.0566736
553.124	0.0566435
554.309	0.0612108
555.494	0.0651022
556.679	0.0703171
557.865	0.0710113
559.049	0.0719357
560.234	0.0754171
561.419	0.0779343
562.604	0.0750472
563.789	0.0703756
564.974	0.0700283
566.159	0.0650159
567.344	0.06007
568.529	0.0589549
569.714	0.0520578
570.899	0.0488406
572.084	0.0470727
573.269	0.0437155
574.454	0.0366307
575.639	0.0312537
576.824	0.0277443
578.009	0.0233769
579.194	0.0182837
580.379	0.0124216
581.564	0.00733628
582.749	0.0111144
583.934	0.00773617
585.119	0.0081787
586.304	0.00986648
587.489	0.00667275
588.674	0.00599812
589.859	0.00538098
591.044	0.00461475
592.229	0.00603878
593.414	0.00920233
594.599	0.00950348
595.784	0.00677139
596.969	0.00763121
598.154	0.00847224
599.339	0.00857304
600.524	0.00853144
601.709	0.00437189
602.894	0.00237335
604.079	0.00317417
605.264	0.00252282
606.449	0.00116431
607.634	0.00203695
608.819	0.00173841
610.004	-0.000805821
611.189	-0.00292134
612.374	-0.00437801
613.559	-0.00465028
614.744	-0.00261504
615.929	-0.00462677
617.114	-0.0028915
618.299	-0.00117222
619.484	0.0012353
620.669	0.0056533
621.854	0.0107937
623.039	0.013279
624.224	0.0132347
625.409	0.0118503
626.594	0.0112097
627.779	0.0133325
628.964	0.01729
630.149	0.0189798
631.334	0.0168987
632.519	0.0177531
633.704	0.0169749
634.889	0.0192069
636.074	0.0206125
637.259	0.0215033
638.444	0.0245374
639.629	0.0237313
640.814	0.0254167
641.999	0.0259861
643.184	0.0269753
644.369	0.0316912
645.554	0.0346054
646.739	0.0337289
647.924	0.0375577
649.109	0.0435152
650.294	0.0510311
651.479	0.0585047
652.664	0.0642236
653.849	0.0707614
655.034	0.0720256
656.219	0.0759438
657.404	0.0800039
658.589	0.0852345
659.774	0.0895359
660.959	0.0940234
662.144	0.0992635
663.329	0.103696
664.514	0.109595
665.699	0.119755
666.884	0.128142
668.069	0.132005
669.254	0.13798
670.439	0.140914
671.624	0.149813
672.809	0.156692
673.994	0.166243
675.179	0.171556
676.364	0.177586
677.549	0.183297
678.734	0.18874
679.919	0.195671
681.104	0.202018
682.289	0.206209
683.474	0.207806
684.659	0.205812
685.844	0.204226
687.029	0.203749
688.214	0.201589
689.399	0.199269
690.584	0.193017
691.769	0.189199
692.954	0.183921
694.139	0.18008
695.324	0.176145
696.509	0.170375
697.694	0.162854
698.879	0.153743
700.064	0.146898
701.249	0.141404
702.434	0.135406
703.619	0.130209
704.804	0.125398
705.989	0.122044
707.174	0.115221
708.359	0.113881
709.544	0.112885
710.729	0.108888
711.914	0.109271
713.099	0.108902
714.284	0.104044
715.469	0.104998
716.654	0.101919
717.839	0.100048
719.024	0.0981313
720.209	0.0993696
721.394	0.103779
722.579	0.105063
723.764	0.103763
724.949	0.106002
726.134	0.109521
727.319	0.108338
728.504	0.106544
729.689	0.104261
730.874	0.104658
732.059	0.105825
733.244	0.109349
734.429	0.106117
735.614	0.109802
736.799	0.110369
737.984	0.113558
739.169	0.114335
740.354	0.115077
741.539	0.117932
742.724	0.11913
743.909	0.11899
745.094	0.119772
746.279	0.121291
747.464	0.124022
748.649	0.125167
749.834	0.125293
751.019	0.127356
752.204	0.128939
753.389	0.134376
754.574	0.138318
755.759	0.14252
756.944	0.138936
758.129	0.139309
759.314	0.138659
760.499	0.137974
761.684	0.13753
762.869	0.138756
764.054	0.139874
765.239	0.139529
766.424	0.13994
767.609	0.140421
768.794	0.13922
769.979	0.139047
771.164	0.140073
772.349	0.140042
773.534	0.141364
774.719	0.141039
775.904	0.147851
777.089	0.147763
778.274	0.150789
779.459	0.152726
780.644	0.159087
781.829	0.160598
783.014	0.167048
784.199	0.170916
785.384	0.175014
786.569	0.179743
787.754	0.182649
788.939	0.184648
790.124	0.184919
791.309	0.18413
792.494	0.187594
793.679	0.193174
794.864	0.196285
796.049	0.201659
797.234	0.206241
798.419	0.210203
799.604	0.210341
800.789	0.213769
801.974	0.213268
803.159	0.219943
804.344	0.228957
805.529	0.239366
806.714	0.253276
807.899	0.264448
809.084	0.281675
810.269	0.295849
811.454	0.309641
812.639	0.325779
813.824	0.343681
815.009	0.360972
816.194	0.380445
817.379	0.400726
818.564	0.421494
819.748	0.445012
820.933	0.468804
822.118	0.489697
823.303	0.50648
824.488	0.521721
825.673	0.536011
826.858	0.55165
828.043	0.564891
829.228	0.575785
830.413	0.582526
831.598	0.58648
832.784	0.59534
833.969	0.606441
835.154	0.616052
836.339	0.630795
837.523	0.639624
838.708	0.650069
839.893	0.663534
841.078	0.68347
842.263	0.706751
843.448	0.731083
844.633	0.752449
845.818	0.77218
847.003	0.795314
848.188	0.822622
849.373	0.850833
850.558	0.875808
851.743	0.895573
852.928	0.91063
854.113	0.921466
855.298	0.931226
856.483	0.94263
857.668	0.948225
858.853	0.948174
860.038	0.939407
861.223	0.924923
862.408	0.90714
863.593	0.896856
864.778	0.877862
865.963	0.855736
867.148	0.829841
868.333	0.806329
869.518	0.782598
870.703	0.757256
871.888	0.733232
873.073	0.707793
874.258	0.678276
875.443	0.647076
876.628	0.615439
877.813	0.585123
878.998	0.559241
880.183	0.534551
881.368	0.507331
882.553	0.482153
883.738	0.462166
884.923	0.443284
886.108	0.42225
887.293	0.399611
888.478	0.379343
889.663	0.363972
890.848	0.352591
892.033	0.343867
893.218	0.337978
894.403	0.333949
895.588	0.338107
896.773	0.339319
897.958	0.33906
899.143	0.345189
900.328	0.350882
901.513	0.356348
902.698	0.360298
903.883	0.369792
905.068	0.383167
906.253	0.394075
907.438	0.405914
908.623	0.413764
909.808	0.423397
910.993	0.435175
912.178	0.446535
913.363	0.455695
914.548	0.464996
915.733	0.477417
916.918	0.487637
918.103	0.495295
919.288	0.50387
920.473	0.511568
921.658	0.516675
922.843	0.518143
924.028	0.51948
925.213	0.521574
926.398	0.520294
927.583	0.519863
928.768	0.514843
929.953	0.509364
931.138	0.50266
932.323	0.49265
933.508	0.482233
934.693	0.463502
935.878	0.450132
937.063	0.437841
938.248	0.421513
939.433	0.404942
940.618	0.391505
941.803	0.375989
942.988	0.360154
944.173	0.346362
945.358	0.331966
946.543	0.31714
947.728	0.30163
948.913	0.285016
950.098	0.271702
951.283	0.260726
952.468	0.256546
953.653	0.253802
954.838	0.243142
956.023	0.236039
957.208	0.232841
958.393	0.230342
959.578	0.229558
960.763	0.230741
961.948	0.231639
963.133	0.232761
964.318	0.236255
965.503	0.23956
966.688	0.244836
967.873	0.252922
969.058	0.259066
970.243	0.264574
971.428	0.26875
972.613	0.275215
973.798	0.285936
974.983	0.292544
976.168	0.297631
977.353	0.300369
978.538	0.30191
979.723	0.303742
980.908	0.304031
982.093	0.30403
983.278	0.304349
984.463	0.305506
985.648	0.305931
986.833	0.302655
988.018	0.29803
989.203	0.293056
990.388	0.287256
991.573	0.279801
992.758	0.271096
993.943	0.262269
995.128	0.257222
996.313	0.254624
997.498	0.248865
998.683	0.247841
999.868	0.24418
1001.05	0.241365
1002.24	0.23995
1003.42	0.23333
1004.61	0.229423
1005.79	0.231167
1006.98	0.230404
1008.16	0.237282
1009.35	0.240324
1010.53	0.243304
1011.72	0.247443
1012.9	0.253967
1014.09	0.259434
1015.27	0.262781
1016.46	0.267537
1017.64	0.272603
1018.83	0.28063
1020.01	0.2896
1021.2	0.301267
1022.38	0.315818
1023.57	0.327051
1024.75	0.339093
1025.94	0.350049
1027.12	0.364503
1028.31	0.382378
1029.49	0.400853
1030.68	0.417781
1031.86	0.434356
1033.05	0.455859
1034.23	0.479354
1035.42	0.502611
1036.6	0.523308
1037.79	0.542183
1038.97	0.56344
1040.16	0.583593
1041.34	0.60268
1042.53	0.622922
1043.71	0.642629
1044.9	0.659528
1046.08	0.67436
1047.27	0.687767
1048.45	0.698328
1049.64	0.708355
1050.82	0.718821
1052.01	0.724847
1053.19	0.728897
1054.38	0.734659
1055.56	0.741406
1056.75	0.741805
1057.93	0.737839
1059.12	0.732478
1060.3	0.724126
1061.49	0.719344
1062.67	0.714424
1063.86	0.708598
1065.04	0.702746
1066.23	0.69641
1067.41	0.687301
1068.6	0.674452
1069.78	0.6634
1070.97	0.65441
1072.15	0.643865
1073.34	0.631111
1074.52	0.61931
1075.71	0.609713
1076.89	0.600059
1078.08	0.592821
1079.26	0.579047
1080.45	0.565006
1081.63	0.554075
1082.82	0.54168
1084	0.533799
1085.19	0.524338
1086.37	0.515509
1087.56	0.506208
1088.74	0.499376
1089.93	0.489264
1091.11	0.479719
1092.3	0.471968
1093.48	0.467436
1094.67	0.466137
1095.85	0.461321
1097.04	0.456094
1098.22	0.453694
1099.41	0.449478
1100.59	0.446083
1101.78	0.442063
1102.96	0.440671
1104.15	0.437937
1105.33	0.437002
1106.52	0.432568
1107.7	0.435181
1108.89	0.432745
1110.07	0.431805
1111.26	0.427042
1112.44	0.422941
1113.63	0.421121
1114.81	0.416881
1116	0.409854
1117.18	0.40162
1118.37	0.391169
1119.55	0.379268
1120.74	0.368439
1121.92	0.357146
1123.11	0.345319
1124.29	0.329097
1125.48	0.312082
1126.66	0.29499
1127.85	0.277135
1129.03	0.260539
1130.22	0.238005
1131.4	0.217277
1132.59	0.203098
1133.77	0.186834
1134.96	0.171268
1136.14	0.162293
1137.33	0.146288
1138.51	0.132272
1139.7	0.121865
1140.88	0.110348
1142.07	0.10187
1143.25	0.0907556
1144.44	0.0847355
1145.62	0.0768002
1146.81	0.0713328
1147.99	0.0690403
1149.18	0.0620402
1150.36	0.0550142
1151.55	0.0519462
1152.73	0.0502567
1153.92	0.0431511
1155.1	0.041335
1156.29	0.0368239
1157.47	0.0313171
1158.66	0.0255487
1159.84	0.0221202
1161.03	0.0188237
1162.21	0.0155934
1163.4	0.0156446
1164.58	0.0131075
1165.77	0.0105323
1166.95	0.0122414
1168.14	0.00953472
1169.32	0.00480248
1170.51	0.00156352
1171.69	-0.000162265
1172.88	-0.00162312
1174.06	0.000347076
1175.25	0.00155738
1176.43	0.0012749
1177.62	0.00120214
1178.8	0.00155502
1179.99	0.00227807
1181.17	0.00242377
1182.36	0.00297459
1183.54	0.0025896
1184.73	0.00231951
1185.91	0.00528045
1187.1	0.00953988
1188.28	0.0109186
1189.47	0.0126793
1190.65	0.0143974
1191.84	0.0140344
1193.02	0.0155857
1194.21	0.0188191
1195.39	0.0199432
1196.58	0.0202789
1197.76	0.0207756
1198.95	0.0217373
1200.13	0.0233044
1201.32	0.0261411
1202.5	0.0279525
1203.69	0.0259847
1204.87	0.023316
1206.06	0.0244569
1207.24	0.0267305
1208.43	0.0300652
1209.61	0.0332873
1210.8	0.0338754
1211.98	0.0324273
1213.17	0.0343048
1214.35	0.0376706
1215.54	0.0384706
1216.72	0.0381872
1217.91	0.0406908
1219.09	0.0406381
1220.28	0.0427115
1221.46	0.0446167
1222.65	0.0436477
1223.83	0.0438963
1225.02	0.0432798
1226.2	0.0414843
1227.39	0.0424421
1228.57	0.0454266
1229.76	0.0540973
1230.94	0.0562943
1232.13	0.0580579
1233.31	0.0634056
1234.5	0.0686722
1235.68	0.0678863
1236.87	0.0729142
1238.05	0.0775304
1239.24	0.0826763
1240.42	0.0902222
1241.61	0.0914261
1242.79	0.0989255
1243.98	0.103368
1245.16	0.106031
1246.35	0.107266
1247.53	0.102488
1248.72	0.103574
1249.9	0.10432
1251.09	0.10653
1252.27	0.106527
1253.46	0.108537
1254.64	0.109209
1255.83	0.111157
1257.01	0.109833
1258.2	0.109382
1259.38	0.11056
1260.57	0.108262
1261.75	0.105675
1262.94	0.103831
1264.12	0.104052
1265.31	0.10641
1266.49	0.107352
1267.68	0.103664
1268.86	0.100073
1270.05	0.0989607
1271.23	0.0964731
1272.42	0.0892816
1273.6	0.0847537
1274.79	0.0857324
1275.97	0.0853596
1277.16	0.0827339
1278.34	0.0833024
1279.53	0.0816579
1280.71	0.079138
1281.9	0.0762167
1283.08	0.0726972
1284.27	0.06863
1285.45	0.0696928
1286.64	0.0696927
1287.82	0.06964
1289.01	0.0674667
1290.19	0.0697675
1291.38	0.07086
1292.56	0.0680885
1293.75	0.0654397
1294.93	0.0639608
1296.12	0.0622429
1297.3	0.0640876
1298.49	0.064603
1299.67	0.0665386
1300.86	0.0666158
1302.04	0.0653634
1303.23	0.0637775
1304.41	0.0612168
1305.6	0.0598117
1306.78	0.0598393
1307.97	0.0569524
1309.15	0.0570424
1310.34	0.057774
1311.52	0.0580278
1312.71	0.0586123
1313.89	0.0580179
1315.08	0.0592711
1316.26	0.0598296
1317.45	0.0599671
1318.63	0.0605225
1319.82	0.0615027
1321	0.060653
1322.19	0.0605829
1323.37	0.0596415
1324.56	0.0613058
1325.74	0.064186
1326.93	0.0613458
1328.11	0.0643609
1329.3	0.061708
1330.48	0.0637895
1331.67	0.0657257
1332.85	0.0636834
1334.04	0.0613275
1335.22	0.0607907
1336.41	0.0609223
1337.59	0.0559437
1338.78	0.055475
1339.96	0.0548396
1341.15	0.0558499
1342.33	0.0542556
1343.52	0.052771
1344.7	0.0516639
1345.89	0.0505569
1347.07	0.0480496
1348.26	0.0446735
1349.44	0.0441024
1350.63	0.0432316
1351.81	0.0413803
1353	0.0415945
1354.18	0.0454267
1355.37	0.0449776
1356.55	0.0453905
1357.74	0.0426923
1358.92	0.0403724
1360.11	0.0410455
1361.29	0.0435075
1362.48	0.0404885
1363.66	0.0391969
1364.85	0.0380952
1366.03	0.0375794
1367.22	0.0342279
1368.4	0.0386239
1369.59	0.0371527
1370.77	0.0369403
1371.96	0.0389423
1373.14	0.0426336
1374.33	0.0413665
1375.51	0.0409573
1376.7	0.0400986
1377.88	0.0378836
1379.07	0.0378253
1380.25	0.0387603
1381.44	0.0406138
1382.62	0.0398601
1383.81	0.0397532
1384.99	0.0374468
1386.18	0.0371513
1387.36	0.033492
1388.55	0.031569
1389.73	0.0300227
1390.92	0.028518
1392.1	0.0327411
1393.29	0.0353651
1394.47	0.0381718
1395.66	0.0381738
1396.84	0.0400403
1398.03	0.0409405
1399.21	0.0413406
1400.4	0.042008
1401.58	0.041801
1402.77	0.0407387
1403.95	0.0425414
1405.14	0.0456676
1406.32	0.0451674
1407.51	0.047352
1408.69	0.046492
1409.88	0.0452978
1411.06	0.045904
1412.25	0.0445755
1413.43	0.0430369
1414.62	0.0437811
1415.8	0.0434459
1416.99	0.0439021
1418.17	0.0447832
1419.36	0.0457154
1420.54	0.0457239
1421.73	0.0447707
1422.91	0.0448537
1424.1	0.0406139
1425.28	0.0401174
1426.47	0.0405143
1427.65	0.0398781
1428.84	0.0403836
1430.02	0.0423824
1431.21	0.0421943
1432.39	0.0416973
1433.58	0.0422456
1434.76	0.0424613
1435.95	0.0458953
1437.13	0.0511917
1438.32	0.0538292
1439.5	0.0565725
1440.69	0.0629037
1441.87	0.0688584
1443.06	0.0732104
1444.24	0.0782828
1445.43	0.0861371
1446.61	0.0946436
1447.8	0.104473
1448.98	0.116655
1450.17	0.130368
1451.35	0.144981
1452.54	0.16
1453.72	0.172362
1454.91	0.18819
1456.09	0.206589
1457.28	0.223297
1458.46	0.23915
1459.65	0.259159
1460.83	0.277656
1462.02	0.289618
1463.2	0.301877
1464.39	0.315822
1465.57	0.326574
1466.76	0.332546
1467.94	0.34108
1469.13	0.34416
1470.31	0.350408
1471.5	0.349096
1472.68	0.345899
1473.87	0.340644
1475.05	0.332875
1476.24	0.320651
1477.42	0.307422
1478.61	0.296
1479.79	0.283287
1480.98	0.265947
1482.16	0.249434
1483.35	0.236288
1484.53	0.218526
1485.72	0.199843
1486.9	0.180761
1488.09	0.164976
1489.27	0.147528
1490.46	0.133107
1491.64	0.121252
1492.83	0.109958
1494.01	0.0987323
1495.2	0.0884809
1496.38	0.0797509
1497.57	0.0735634
1498.75	0.0679743
1499.94	0.0605739
1501.12	0.0550343
1502.31	0.0542118
1503.49	0.0524156
1504.68	0.0474634
1505.86	0.0437807
1507.05	0.0408704
1508.23	0.0394252
1509.42	0.0407371
1510.6	0.0405334
1511.79	0.0410256
1512.97	0.0417303
1514.16	0.039932
1515.34	0.0387296
1516.53	0.038385
1517.71	0.0376072
1518.9	0.0357439
1520.08	0.0338725
1521.27	0.0353508
1522.45	0.036677
1523.64	0.0369878
1524.82	0.0360391
1526.01	0.0328786
1527.19	0.0305496
1528.38	0.0283591
1529.56	0.0244582
1530.75	0.0231922
1531.93	0.022407
1533.12	0.0212724
1534.3	0.0214178
1535.49	0.0208069
1536.67	0.0185181
1537.86	0.0171375
1539.04	0.0150159
1540.23	0.0131381
1541.41	0.010844
1542.6	0.00927092
1543.78	0.0102908
1544.97	0.0093743
1546.15	0.00871133
1547.34	0.00851282
1548.52	0.00920868
1549.71	0.00823441
1550.89	0.0055605
1552.08	0.00517896
1553.26	0.0060099
1554.45	0.00512652
1555.63	0.00655191
1556.82	0.00756072
1558	0.00802747
1559.19	0.00681345
1560.37	0.0039679
1561.56	0.00240051
1562.74	0.00336435
1563.93	0.000978202
1565.11	-0.0010816
1566.3	-0.000297806
1567.48	0.000494024
1568.67	-0.000814972
1569.85	-0.00284018
1571.04	-0.00335472
1572.22	-0.00456579
1573.41	-0.00554369
1574.59	-0.00475901
1575.78	-0.00188229
1576.96	0.0004606
1578.15	0.00122403
1579.33	0.00199987
1580.52	0.00295148
1581.7	0.00410303
1582.89	0.00440406
1584.07	0.00473962
1585.26	0.00519637
1586.44	0.00634995
1587.63	0.00720739
1588.81	0.00838977
1590	0.0102213
1591.18	0.00965652
1592.37	0.00748421
1593.55	0.00574962
1594.74	0.00568472
1595.92	0.00628771
1597.11	0.00758598
1598.29	0.0098487
1599.48	0.00905046
1600.66	0.00952044
1601.85	0.0107644
1603.03	0.0122833
1604.22	0.0136263
1605.4	0.0140347
1606.59	0.0143086
1607.77	0.0155291
1608.96	0.0173247
1610.14	0.0181638
1611.33	0.0183629
1612.51	0.0171135
1613.7	0.0151796
1614.88	0.0107201
1616.07	0.00865713
1617.25	0.00800889
1618.44	0.00689942
1619.62	0.00584416
1620.81	0.00408021
1621.99	0.00218813
1623.18	-0.00048914
1624.36	-0.00234912
1625.55	-0.00415894
1626.73	-0.00419706
1627.92	-0.00345739
1629.1	-0.00239757
1630.29	-0.00203276
1631.47	0.00210455
1632.66	0.00382902
1633.84	0.0043656
1635.03	0.00341641
1636.21	0.00479793
1637.4	0.00484268
1638.58	0.00780986
1639.77	0.00955096
1640.95	0.0103078
1642.14	0.0118776
1643.32	0.0129359
1644.51	0.0136407
1645.69	0.0180194
1646.88	0.0215344
1648.06	0.0239859
1649.25	0.0240153
1650.43	0.0254286
1651.62	0.0281469
1652.8	0.0274409
1653.99	0.0322638
1655.17	0.0327246
1656.36	0.0341303
1657.54	0.0353622
1658.73	0.0375338
1659.91	0.0415374
1661.1	0.044171
1662.28	0.0441541
1663.47	0.0438885
1664.65	0.0423776
1665.84	0.0441573
1667.02	0.0444647
1668.21	0.0424495
1669.39	0.0433408
1670.58	0.0411629
1671.76	0.0440275
1672.95	0.0444885
1674.13	0.0462697
1675.32	0.044448
1676.5	0.0415088
1677.69	0.041511
1678.87	0.0415142
1680.06	0.0404728
1681.24	0.0421918
1682.43	0.0427035
1683.61	0.0465717
1684.8	0.0489509
1685.98	0.050441
1687.17	0.0517274
1688.35	0.0511985
1689.54	0.0532386
1690.72	0.055263
1691.91	0.0581055
1693.09	0.0601732
1694.28	0.0611203
1695.46	0.0614014
1696.65	0.0649002
1697.83	0.0658514
1699.02	0.0665739
1700.2	0.065259
1701.39	0.067694
1702.57	0.0686587
1703.76	0.0675938
1704.94	0.0666329
1706.13	0.0661169
1707.31	0.066772
1708.5	0.0671252
1709.68	0.0668993
1710.87	0.0667361
1712.05	0.0658755
1713.24	0.0634177
1714.42	0.0632662
1715.61	0.0651453
1716.79	0.0663807
1717.98	0.0655247
1719.16	0.0667966
1720.35	0.0697172
1721.53	0.0724142
1722.72	0.0718351
1723.9	0.0706721
1725.09	0.0712821
1726.27	0.0703898
1727.46	0.0682006
1728.64	0.0707904
1729.83	0.0698587
1731.01	0.0708149
1732.2	0.0684357
1733.38	0.06729
1734.57	0.0668087
1735.75	0.0667931
1736.94	0.0649313
1738.12	0.0637253
1739.31	0.0643864
1740.49	0.0637538
1741.68	0.0624611
1742.86	0.0618384
1744.05	0.0631384
1745.23	0.0629509
1746.42	0.0641364
1747.6	0.0640361
1748.79	0.0642413
1749.97	0.0640269
1751.16	0.0619347
1752.34	0.0608671
1753.53	0.0596776
1754.71	0.0581143
1755.9	0.0577039
1757.08	0.0567472
1758.27	0.0570288
1759.45	0.0556985
1760.64	0.0527793
1761.82	0.0488774
1763.01	0.0457909
1764.19	0.0434778
1765.38	0.041451
1766.56	0.040805
1767.75	0.0401156
1768.93	0.0374566
1770.12	0.0335984
1771.3	0.0327168
1772.49	0.0315394
1773.67	0.0279206
1774.86	0.0250825
1776.04	0.0251119
1777.23	0.0248665
1778.41	0.0233301
1779.6	0.0209226
1780.78	0.0191788
1781.97	0.01709
1783.15	0.015047
1784.34	0.0145036
1785.52	0.0141848
1786.71	0.0144638
1787.89	0.0122917
1789.08	0.0108175
1790.26	0.010784
1791.45	0.00955624
1792.63	0.00604388
1793.82	0.00566905
1795	0.00432423
