405	0.0353222
406.185	0.0331219
407.37	0.0312712
408.555	0.0342183
409.74	0.0423761
410.925	0.0533231
412.11	0.0683636
413.295	0.0857212
414.48	0.101128
415.665	0.121442
416.85	0.151877
418.035	0.158561
419.22	0.188809
420.405	0.203377
421.59	0.221374
422.775	0.243669
423.96	0.264176
425.145	0.283327
426.33	0.302931
427.515	0.317097
428.7	0.323153
429.885	0.329645
431.07	0.339172
432.255	0.339724
433.44	0.329226
434.625	0.318434
435.81	0.306794
436.995	0.297766
438.18	0.288723
439.365	0.272419
440.55	0.258396
441.735	0.235458
442.92	0.217493
444.105	0.210996
445.29	0.20284
446.475	0.183731
447.66	0.170129
448.845	0.163062
450.03	0.154885
451.215	0.142256
452.4	0.128852
453.585	0.122363
454.77	0.119793
455.955	0.114963
457.14	0.0966682
458.325	0.0892445
459.51	0.0917493
460.695	0.0972605
461.88	0.0995772
463.065	0.102551
464.25	0.105665
465.435	0.105542
466.62	0.119612
467.805	0.124429
468.99	0.12395
470.175	0.132988
471.36	0.161615
472.545	0.181731
473.73	0.195634
474.915	0.217053
476.1	0.248591
477.285	0.279932
478.47	0.304352
479.655	0.33088
480.84	0.367904
482.025	0.404287
483.21	0.437812
484.395	0.474714
485.58	0.51808
486.765	0.556391
487.95	0.591572
489.135	0.62639
490.32	0.654782
491.505	0.679324
492.69	0.714794
493.875	0.746018
495.06	0.762873
496.245	0.782566
497.43	0.810796
498.615	0.81841
499.8	0.812112
500.985	0.81085
502.17	0.80434
503.355	0.793665
504.54	0.778308
505.725	0.750481
506.91	0.727388
508.095	0.70239
509.28	0.676955
510.465	0.65029
511.65	0.627495
512.835	0.597167
514.02	0.566566
515.205	0.531338
516.39	0.490584
517.575	0.456163
518.76	0.434
519.945	0.410918
521.13	0.377921
522.315	0.355303
523.5	0.331316
524.685	0.31448
525.87	0.302556
527.055	0.296098
528.24	0.290883
529.425	0.27402
530.61	0.250105
531.795	0.230748
532.98	0.214449
534.165	0.198223
535.35	0.192518
536.535	0.186851
537.72	0.173663
538.905	0.172083
540.09	0.168386
541.275	0.167954
542.46	0.170269
543.644	0.176012
544.829	0.181108
546.014	0.179416
547.199	0.171041
548.384	0.164348
549.569	0.168346
550.754	0.178644
551.939	0.170566
553.124	0.193152
554.309	0.193402
555.494	0.198557
556.679	0.204237
557.865	0.204983
559.049	0.211539
560.234	0.209794
561.419	0.202524
562.604	0.197275
563.789	0.187578
564.974	0.177144
566.159	0.179368
567.344	0.177435
568.529	0.185405
569.714	0.180738
570.899	0.187309
572.084	0.177176
573.269	0.173418
574.454	0.169396
575.639	0.167853
576.824	0.164329
578.009	0.156242
579.194	0.153156
580.379	0.154815
581.564	0.14721
582.749	0.148472
583.934	0.156145
585.119	0.151564
586.304	0.147678
587.489	0.137696
588.674	0.135839
589.859	0.137543
591.044	0.125429
592.229	0.11918
593.414	0.123491
594.599	0.121819
595.784	0.11504
596.969	0.110677
598.154	0.105643
599.339	0.102498
600.524	0.100639
601.709	0.0897337
602.894	0.0814572
604.079	0.0741112
605.264	0.074016
606.449	0.0739871
607.634	0.0654337
608.819	0.0551176
610.004	0.0563472
611.189	0.0617137
612.374	0.0569699
613.559	0.05445
614.744	0.0544556
615.929	0.0455331
617.114	0.0484552
618.299	0.0483877
619.484	0.0414797
620.669	0.0332489
621.854	0.0329128
623.039	0.0308031
624.224	0.026454
625.409	0.0231012
626.594	0.0234366
627.779	0.0244479
628.964	0.0221452
630.149	0.0204631
631.334	0.0205346
632.519	0.0167875
633.704	0.0104752
634.889	0.0184553
636.074	0.00768016
637.259	-0.00585739
638.444	-0.006679
639.629	0.00385807
640.814	0.00180337
641.999	-0.001082
643.184	-0.00434992
644.369	-0.00495288
645.554	-0.0026429
646.739	-0.00582534
647.924	-0.00710578
649.109	-0.00954091
650.294	-0.00992907
651.479	-0.00792958
652.664	0.00130485
653.849	-0.000237172
655.034	0.00692655
656.219	0.0145109
657.404	0.0227125
658.589	0.0208945
659.774	0.0235497
660.959	0.0252222
662.144	0.0298401
663.329	0.0390487
664.514	0.0403297
665.699	0.037878
666.884	0.0434506
668.069	0.0539383
669.254	0.0556741
670.439	0.0657596
671.624	0.0634107
672.809	0.0757133
673.994	0.0769605
675.179	0.0901085
676.364	0.0974232
677.549	0.103514
678.734	0.103488
679.919	0.111736
681.104	0.123616
682.289	0.124857
683.474	0.126055
684.659	0.134145
685.844	0.135206
687.029	0.136258
688.214	0.129248
689.399	0.113979
690.584	0.115667
691.769	0.0989145
692.954	0.0876451
694.139	0.0777555
695.324	0.0678614
696.509	0.0608185
697.694	0.0573421
698.879	0.0494849
700.064	0.0353705
701.249	0.0251891
702.434	0.0188319
703.619	0.0114205
704.804	0.00812533
705.989	0.00326186
707.174	0.0063173
708.359	0.0034215
709.544	-0.00136817
710.729	0.00820906
711.914	0.0131421
713.099	0.0107162
714.284	0.00779769
715.469	0.003449
716.654	0.00395728
717.839	0.000755516
719.024	-0.00235917
720.209	-0.00210764
721.394	0.00100814
722.579	0.000986668
723.764	-0.000684986
724.949	0.00225103
726.134	0.00217435
727.319	0.00512668
728.504	0.00701879
729.689	0.00273861
730.874	0.00862641
732.059	0.00165435
733.244	0.00533642
734.429	0.0135362
735.614	0.0177524
736.799	0.0215737
737.984	0.0227823
739.169	0.0234491
740.354	0.0249563
741.539	0.0310816
742.724	0.0283372
743.909	0.0208411
745.094	0.0185625
746.279	0.0147063
747.464	0.0146768
748.649	0.0190383
749.834	0.0177522
751.019	0.0186115
752.204	0.0176242
753.389	0.013629
754.574	0.00280718
755.759	0.00203281
756.944	0.00832855
758.129	0.0079079
759.314	0.00141321
760.499	-0.00761745
761.684	-0.00476965
762.869	-0.00102768
764.054	0.00284688
765.239	0.00271587
766.424	-0.000653682
767.609	-0.00726356
768.794	-0.00996355
769.979	-0.00267243
771.164	-0.00416281
772.349	-0.00450032
773.534	-0.00143263
774.719	-0.00406127
775.904	-0.00776353
777.089	-0.0084183
778.274	0.000851081
779.459	0.00719958
780.644	0.00727544
781.829	0.00348009
783.014	0.00455228
784.199	0.0142797
785.384	0.0176931
786.569	0.0205851
787.754	0.0189386
788.939	0.021158
790.124	0.02011
791.309	0.0144849
792.494	0.00822582
793.679	0.00215136
794.864	0.000643955
796.049	-0.00299635
797.234	-0.00421332
798.419	-0.00511363
799.604	-0.00355614
800.789	0.0110703
801.974	0.0211871
803.159	0.0233089
804.344	0.0269536
805.529	0.044861
806.714	0.0572268
807.899	0.0635474
809.084	0.0830142
810.269	0.114197
811.454	0.151389
812.639	0.180902
813.824	0.206898
815.009	0.23128
816.194	0.259039
817.379	0.288278
818.564	0.306735
819.748	0.318285
820.933	0.334313
822.118	0.354112
823.303	0.377222
824.488	0.395394
825.673	0.414666
826.858	0.427908
828.043	0.439051
829.228	0.431798
830.413	0.432268
831.598	0.444484
832.784	0.453207
833.969	0.465818
835.154	0.470336
836.339	0.484939
837.523	0.506471
838.708	0.525506
839.893	0.544745
841.078	0.564564
842.263	0.583698
843.448	0.604206
844.633	0.631929
845.818	0.66615
847.003	0.704577
848.188	0.74407
849.373	0.775995
850.558	0.804044
851.743	0.834546
852.928	0.85879
854.113	0.884897
855.298	0.902502
856.483	0.92213
857.668	0.927618
858.853	0.933941
860.038	0.940812
861.223	0.948225
862.408	0.940923
863.593	0.924306
864.778	0.910511
865.963	0.887517
867.148	0.862248
868.333	0.831348
869.518	0.794634
870.703	0.767409
871.888	0.737789
873.073	0.703683
874.258	0.660857
875.443	0.627778
876.628	0.602455
877.813	0.568944
878.998	0.531461
880.183	0.502152
881.368	0.477577
882.553	0.44887
883.738	0.421781
884.923	0.402856
886.108	0.385162
887.293	0.368639
888.478	0.352665
889.663	0.332876
890.848	0.319031
892.033	0.319096
893.218	0.318575
894.403	0.311748
895.588	0.294357
896.773	0.288414
897.958	0.292934
899.143	0.287689
900.328	0.296597
901.513	0.299987
902.698	0.305106
903.883	0.309148
905.068	0.321081
906.253	0.337006
907.438	0.357031
908.623	0.37572
909.808	0.391535
910.993	0.407302
912.178	0.423022
913.363	0.444751
914.548	0.468249
915.733	0.491806
916.918	0.51014
918.103	0.522011
919.288	0.536273
920.473	0.554115
921.658	0.573549
922.843	0.590451
924.028	0.598306
925.213	0.601726
926.398	0.602459
927.583	0.599644
928.768	0.592241
929.953	0.579602
931.138	0.578506
932.323	0.570844
933.508	0.554852
934.693	0.530506
935.878	0.521253
937.063	0.511227
938.248	0.495364
939.433	0.473981
940.618	0.440261
941.803	0.422445
942.988	0.402226
944.173	0.38271
945.358	0.363764
946.543	0.340731
947.728	0.32193
948.913	0.300556
950.098	0.280832
951.283	0.272483
952.468	0.260411
953.653	0.25252
954.838	0.241969
956.023	0.230579
957.208	0.225241
958.393	0.227791
959.578	0.224506
960.763	0.22048
961.948	0.216391
963.133	0.213971
964.318	0.219156
965.503	0.229985
966.688	0.235907
967.873	0.237366
969.058	0.243557
970.243	0.251457
971.428	0.260041
972.613	0.266857
973.798	0.275188
974.983	0.278685
976.168	0.288164
977.353	0.291048
978.538	0.297638
979.723	0.298337
980.908	0.304673
982.093	0.305388
983.278	0.302282
984.463	0.309397
985.648	0.31355
986.833	0.30959
988.018	0.309159
989.203	0.301811
990.388	0.298872
991.573	0.296235
992.758	0.304806
993.943	0.293821
995.128	0.291921
996.313	0.302798
997.498	0.315065
998.683	0.318601
999.868	0.319048
1001.05	0.328243
1002.24	0.320017
1003.42	0.32789
1004.61	0.337528
1005.79	0.335877
1006.98	0.337957
1008.16	0.33658
1009.35	0.333938
1010.53	0.336385
1011.72	0.336311
1012.9	0.337031
1014.09	0.334476
1015.27	0.335271
1016.46	0.340977
1017.64	0.345386
1018.83	0.348332
1020.01	0.360106
1021.2	0.366454
1022.38	0.370952
1023.57	0.384785
1024.75	0.401672
1025.94	0.41994
1027.12	0.436114
1028.31	0.455329
1029.49	0.476645
1030.68	0.501376
1031.86	0.527021
1033.05	0.548475
1034.23	0.567903
1035.42	0.592106
1036.6	0.621973
1037.79	0.649045
1038.97	0.674858
1040.16	0.704139
1041.34	0.731794
1042.53	0.755899
1043.71	0.78017
1044.9	0.802675
1046.08	0.822723
1047.27	0.841368
1048.45	0.857558
1049.64	0.867299
1050.82	0.873354
1052.01	0.882491
1053.19	0.891022
1054.38	0.893664
1055.56	0.893511
1056.75	0.89245
1057.93	0.884055
1059.12	0.877009
1060.3	0.873873
1061.49	0.867648
1062.67	0.850564
1063.86	0.837735
1065.04	0.820348
1066.23	0.808601
1067.41	0.795895
1068.6	0.782311
1069.78	0.758274
1070.97	0.736451
1072.15	0.718576
1073.34	0.69606
1074.52	0.677598
1075.71	0.658642
1076.89	0.638483
1078.08	0.612621
1079.26	0.587634
1080.45	0.580329
1081.63	0.570804
1082.82	0.555969
1084	0.547211
1085.19	0.540137
1086.37	0.531044
1087.56	0.53447
1088.74	0.530433
1089.93	0.519612
1091.11	0.525138
1092.3	0.517137
1093.48	0.515296
1094.67	0.511174
1095.85	0.509961
1097.04	0.505935
1098.22	0.501368
1099.41	0.492999
1100.59	0.489536
1101.78	0.486329
1102.96	0.478795
1104.15	0.471614
1105.33	0.465938
1106.52	0.471834
1107.7	0.476767
1108.89	0.467979
1110.07	0.462138
1111.26	0.464778
1112.44	0.458158
1113.63	0.452742
1114.81	0.451624
1116	0.446956
1117.18	0.44552
1118.37	0.441082
1119.55	0.419918
1120.74	0.413936
1121.92	0.405936
1123.11	0.385829
1124.29	0.359447
1125.48	0.337919
1126.66	0.31671
1127.85	0.295079
1129.03	0.269679
1130.22	0.246289
1131.4	0.227663
1132.59	0.206216
1133.77	0.180159
1134.96	0.157424
1136.14	0.141714
1137.33	0.134658
1138.51	0.111634
1139.7	0.102347
1140.88	0.0936271
1142.07	0.0867422
1143.25	0.0818947
1144.44	0.0751889
1145.62	0.0754405
1146.81	0.073791
1147.99	0.0737993
1149.18	0.0669073
1150.36	0.0613469
1151.55	0.0592329
1152.73	0.0562767
1153.92	0.054437
1155.1	0.0514371
1156.29	0.0478869
1157.47	0.0364283
1158.66	0.0345276
1159.84	0.0325892
1161.03	0.0307783
1162.21	0.0317836
1163.4	0.0238045
1164.58	0.0188358
1165.77	0.0153779
1166.95	0.0166884
1168.14	0.0206655
1169.32	0.0250283
1170.51	0.0257625
1171.69	0.0248693
1172.88	0.022061
1174.06	0.0233071
1175.25	0.0220146
1176.43	0.0151073
1177.62	0.00888563
1178.8	0.000699864
1179.99	-0.00732991
1181.17	-0.00608767
1182.36	-0.00569323
1183.54	-0.00455177
1184.73	-0.00309588
1185.91	-0.0019097
1187.1	-0.000488588
1188.28	-0.00144531
1189.47	-0.00289403
1190.65	0.00104541
1191.84	0.00258971
1193.02	0.011048
1194.21	0.0187601
1195.39	0.0252115
1196.58	0.0383938
1197.76	0.0502626
1198.95	0.0543444
1200.13	0.0611949
1201.32	0.0660748
1202.5	0.0635823
1203.69	0.0604887
1204.87	0.0558146
1206.06	0.0568541
1207.24	0.0505862
1208.43	0.0488478
1209.61	0.0513942
1210.8	0.0483133
1211.98	0.0493961
1213.17	0.0408495
1214.35	0.0267271
1215.54	0.0152569
1216.72	0.00804872
1217.91	0.00324798
1219.09	0.00223615
1220.28	0.00473034
1221.46	0.00956111
1222.65	0.0162348
1223.83	0.0143342
1225.02	0.0195348
1226.2	0.0188365
1227.39	0.0134506
1228.57	0.0109346
1229.76	0.0188151
1230.94	0.0397866
1232.13	0.0435697
1233.31	0.0555486
1234.5	0.0693665
1235.68	0.0801213
1236.87	0.0899554
1238.05	0.0920396
1239.24	0.0975738
1240.42	0.100583
1241.61	0.107885
1242.79	0.108443
1243.98	0.120976
1245.16	0.128463
1246.35	0.14231
1247.53	0.132766
1248.72	0.131048
1249.9	0.14072
1251.09	0.144015
1252.27	0.151665
1253.46	0.157511
1254.64	0.162859
1255.83	0.17362
1257.01	0.172837
1258.2	0.172396
1259.38	0.176164
1260.57	0.184999
1261.75	0.186644
1262.94	0.192259
1264.12	0.198948
1265.31	0.204981
1266.49	0.204445
1267.68	0.208139
1268.86	0.208308
1270.05	0.194331
1271.23	0.189194
1272.42	0.183771
1273.6	0.182899
1274.79	0.181102
1275.97	0.181986
1277.16	0.173695
1278.34	0.175489
1279.53	0.169213
1280.71	0.16035
1281.9	0.156118
1283.08	0.157482
1284.27	0.160441
1285.45	0.146856
1286.64	0.1506
1287.82	0.155145
1289.01	0.150487
1290.19	0.143875
1291.38	0.142764
1292.56	0.140237
1293.75	0.143139
1294.93	0.139399
1296.12	0.137537
1297.3	0.148102
1298.49	0.14783
1299.67	0.144474
1300.86	0.142675
1302.04	0.141653
1303.23	0.14855
1304.41	0.1515
1305.6	0.154878
1306.78	0.161252
1307.97	0.16943
1309.15	0.174468
1310.34	0.183403
1311.52	0.200872
1312.71	0.208419
1313.89	0.204494
1315.08	0.209827
1316.26	0.21611
1317.45	0.220321
1318.63	0.226772
1319.82	0.232696
1321	0.235857
1322.19	0.236701
1323.37	0.236985
1324.56	0.239242
1325.74	0.238301
1326.93	0.23326
1328.11	0.233578
1329.3	0.212798
1330.48	0.215388
1331.67	0.217817
1332.85	0.216587
1334.04	0.210771
1335.22	0.208002
1336.41	0.20595
1337.59	0.200736
1338.78	0.189574
1339.96	0.192478
1341.15	0.194642
1342.33	0.188053
1343.52	0.185757
1344.7	0.182516
1345.89	0.18297
1347.07	0.191208
1348.26	0.188422
1349.44	0.183109
1350.63	0.184486
1351.81	0.188967
1353	0.1875
1354.18	0.185313
1355.37	0.189004
1356.55	0.186256
1357.74	0.175931
1358.92	0.179083
1360.11	0.184486
1361.29	0.183743
1362.48	0.187128
1363.66	0.180719
1364.85	0.193861
1366.03	0.197701
1367.22	0.196104
1368.4	0.195341
1369.59	0.190761
1370.77	0.195147
1371.96	0.193911
1373.14	0.19636
1374.33	0.200447
1375.51	0.198757
1376.7	0.192862
1377.88	0.1923
1379.07	0.190294
1380.25	0.183517
1381.44	0.171742
1382.62	0.161165
1383.81	0.161157
1384.99	0.159557
1386.18	0.161362
1387.36	0.154211
1388.55	0.160512
1389.73	0.165986
1390.92	0.177654
1392.1	0.182272
1393.29	0.182037
1394.47	0.179583
1395.66	0.183289
1396.84	0.183137
1398.03	0.190077
1399.21	0.194046
1400.4	0.203424
1401.58	0.209486
1402.77	0.214895
1403.95	0.226159
1405.14	0.234791
1406.32	0.231804
1407.51	0.229048
1408.69	0.231084
1409.88	0.238177
1411.06	0.241992
1412.25	0.242745
1413.43	0.248829
1414.62	0.254065
1415.8	0.259585
1416.99	0.262721
1418.17	0.262885
1419.36	0.268737
1420.54	0.265537
1421.73	0.258877
1422.91	0.264806
1424.1	0.256995
1425.28	0.255566
1426.47	0.254779
1427.65	0.255635
1428.84	0.262235
1430.02	0.26185
1431.21	0.262335
1432.39	0.261851
1433.58	0.264457
1434.76	0.264974
1435.95	0.263666
1437.13	0.264312
1438.32	0.268939
1439.5	0.273101
1440.69	0.287163
1441.87	0.301781
1443.06	0.317194
1444.24	0.338542
1445.43	0.345674
1446.61	0.36344
1447.8	0.381652
1448.98	0.402888
1450.17	0.423899
1451.35	0.439334
1452.54	0.466864
1453.72	0.494918
1454.91	0.517825
1456.09	0.53613
1457.28	0.553541
1458.46	0.567694
1459.65	0.575428
1460.83	0.586684
1462.02	0.600094
1463.2	0.611297
1464.39	0.633415
1465.57	0.63968
1466.76	0.645293
1467.94	0.658278
1469.13	0.657312
1470.31	0.655119
1471.5	0.652599
1472.68	0.646728
1473.87	0.62968
1475.05	0.618077
1476.24	0.610524
1477.42	0.597605
1478.61	0.579937
1479.79	0.563254
1480.98	0.536851
1482.16	0.50888
1483.35	0.478469
1484.53	0.449846
1485.72	0.426667
1486.9	0.402817
1488.09	0.374062
1489.27	0.355739
1490.46	0.342475
1491.64	0.327918
1492.83	0.310217
1494.01	0.290233
1495.2	0.273162
1496.38	0.251028
1497.57	0.230412
1498.75	0.214457
1499.94	0.21365
1501.12	0.208853
1502.31	0.198686
1503.49	0.1836
1504.68	0.181461
1505.86	0.170906
1507.05	0.1697
1508.23	0.166907
1509.42	0.160243
1510.6	0.160357
1511.79	0.150543
1512.97	0.156984
1514.16	0.161324
1515.34	0.16583
1516.53	0.156609
1517.71	0.148868
1518.9	0.140185
1520.08	0.138574
1521.27	0.132343
1522.45	0.129829
1523.64	0.125189
1524.82	0.116968
1526.01	0.117062
1527.19	0.108759
1528.38	0.109227
1529.56	0.109351
1530.75	0.107253
1531.93	0.105146
1533.12	0.106913
1534.3	0.104136
1535.49	0.104266
1536.67	0.0997979
1537.86	0.0971945
1539.04	0.0966689
1540.23	0.0982801
1541.41	0.0988967
1542.6	0.091496
1543.78	0.0901392
1544.97	0.0876675
1546.15	0.0822508
1547.34	0.0814434
1548.52	0.0804919
1549.71	0.0782277
1550.89	0.0761983
1552.08	0.0752179
1553.26	0.0745155
1554.45	0.0755429
1555.63	0.071476
1556.82	0.0662818
1558	0.0625725
1559.19	0.0595505
1560.37	0.0567553
1561.56	0.0585207
1562.74	0.0595989
1563.93	0.0573166
1565.11	0.054337
1566.3	0.0526346
1567.48	0.0515809
1568.67	0.0565339
1569.85	0.0599985
1571.04	0.0602353
1572.22	0.0565866
1573.41	0.0535559
1574.59	0.0523224
1575.78	0.0520573
1576.96	0.0518084
1578.15	0.0635045
1579.33	0.0657233
1580.52	0.0624494
1581.7	0.0588843
1582.89	0.058072
1584.07	0.0598527
1585.26	0.0541303
1586.44	0.051618
1587.63	0.0495728
1588.81	0.0529339
1590	0.0541541
1591.18	0.0544366
1592.37	0.0553818
1593.55	0.0547163
1594.74	0.0407247
1595.92	0.0379545
1597.11	0.0435391
1598.29	0.0426334
1599.48	0.0416369
1600.66	0.0443824
1601.85	0.042726
1603.03	0.0391925
1604.22	0.0351958
1605.4	0.0324454
1606.59	0.0352927
1607.77	0.0377451
1608.96	0.0342283
1610.14	0.0315225
1611.33	0.0285718
1612.51	0.0246376
1613.7	0.0180835
1614.88	0.0190189
1616.07	0.0170305
1617.25	0.0115868
1618.44	0.0110148
1619.62	0.0121735
1620.81	0.0129121
1621.99	0.0110265
1623.18	0.0050131
1624.36	-0.00276727
1625.55	-0.00313397
1626.73	-0.00248357
1627.92	-0.00213765
1629.1	0.00132938
1630.29	-0.00126536
1631.47	-0.00548152
1632.66	-0.00656829
1633.84	-0.00513472
1635.03	-0.00878856
1636.21	-0.0105657
1637.4	-0.00380336
1638.58	0.00291644
1639.77	0.00938533
1640.95	0.0209464
1642.14	0.0301676
1643.32	0.0357134
1644.51	0.0363608
1645.69	0.0393952
1646.88	0.04539
1648.06	0.0513773
1649.25	0.0570484
1650.43	0.0585983
1651.62	0.0641052
1652.8	0.0745122
1653.99	0.0777027
1655.17	0.0775879
1656.36	0.0805553
1657.54	0.082689
1658.73	0.0813203
1659.91	0.0786054
1661.1	0.0835603
1662.28	0.0911829
1663.47	0.097722
1664.65	0.101644
1665.84	0.103887
1667.02	0.107055
1668.21	0.108771
1669.39	0.1085
1670.58	0.0995024
1671.76	0.101468
1672.95	0.0986793
1674.13	0.0953128
1675.32	0.0969828
1676.5	0.105069
1677.69	0.102204
1678.87	0.0894
1680.06	0.0825822
1681.24	0.079278
1682.43	0.078968
1683.61	0.0761764
1684.8	0.0809142
1685.98	0.0803192
1687.17	0.0856942
1688.35	0.0864419
1689.54	0.0903189
1690.72	0.0909015
1691.91	0.0865187
1693.09	0.0784106
1694.28	0.0775258
1695.46	0.0811783
1696.65	0.0849636
1697.83	0.0859557
1699.02	0.0885398
1700.2	0.0897989
1701.39	0.0840797
1702.57	0.0821128
1703.76	0.0802265
1704.94	0.0754608
1706.13	0.067367
1707.31	0.0632146
1708.5	0.0647518
1709.68	0.0645903
1710.87	0.0654275
1712.05	0.0660776
1713.24	0.0672507
1714.42	0.0595104
1715.61	0.059371
1716.79	0.0559207
1717.98	0.0566458
1719.16	0.0538303
1720.35	0.0494825
1721.53	0.0477788
1722.72	0.0539452
1723.9	0.0586178
1725.09	0.0579356
1726.27	0.0597922
1727.46	0.0619823
1728.64	0.0648315
1729.83	0.0668494
1731.01	0.0747661
1732.2	0.0724847
1733.38	0.0739066
1734.57	0.0738338
1735.75	0.077829
1736.94	0.0820213
1738.12	0.0846196
1739.31	0.0812809
1740.49	0.0760524
1741.68	0.0767594
1742.86	0.0791484
1744.05	0.0730984
1745.23	0.0686888
1746.42	0.0661315
1747.6	0.059181
1748.79	0.0530383
1749.97	0.0494149
1751.16	0.047938
1752.34	0.0455397
1753.53	0.0452222
1754.71	0.0394769
1755.9	0.0400564
1757.08	0.0469187
1758.27	0.0424281
1759.45	0.0382302
1760.64	0.0398106
1761.82	0.0394645
1763.01	0.0378955
1764.19	0.0428144
1765.38	0.0420984
1766.56	0.039372
1767.75	0.0347957
1768.93	0.0332055
1770.12	0.0310649
1771.3	0.0296325
1772.49	0.0254229
1773.67	0.0171354
1774.86	0.0148175
1776.04	0.0124966
1777.23	0.00867497
1778.41	0.00614163
1779.6	-0.000644341
1780.78	-0.00215982
1781.97	-0.00204822
1783.15	-0.00139639
1784.34	0.00130058
1785.52	-0.00117141
1786.71	0.000898443
1787.89	0.00225898
1789.08	-0.00264056
1790.26	-0.00546647
1791.45	-0.0067171
1792.63	-0.00250968
1793.82	-0.00253236
1795	-0.00362257
