405	-0.0105657
406.185	4.08551e-005
407.37	0.00975137
408.555	0.0212454
409.74	0.0326904
410.925	0.0469513
412.11	0.0623206
413.295	0.076203
414.48	0.0904725
415.665	0.107628
416.85	0.133048
418.035	0.154812
419.22	0.168323
420.405	0.187932
421.59	0.207879
422.775	0.225476
423.96	0.23939
425.145	0.251918
426.33	0.264431
427.515	0.273821
428.7	0.28561
429.885	0.299357
431.07	0.29912
432.255	0.300063
433.44	0.296392
434.625	0.291195
435.81	0.282218
436.995	0.270581
438.18	0.261435
439.365	0.25377
440.55	0.238615
441.735	0.222983
442.92	0.209526
444.105	0.199362
445.29	0.187074
446.475	0.171071
447.66	0.153913
448.845	0.137143
450.03	0.125003
451.215	0.117283
452.4	0.108614
453.585	0.102366
454.77	0.0927222
455.955	0.0854477
457.14	0.0735681
458.325	0.0680427
459.51	0.0624651
460.695	0.0609307
461.88	0.0597519
463.065	0.0578505
464.25	0.0578632
465.435	0.0614089
466.62	0.0720538
467.805	0.0767441
468.99	0.0841135
470.175	0.0926207
471.36	0.104436
472.545	0.117538
473.73	0.136177
474.915	0.156267
476.1	0.179734
477.285	0.205895
478.47	0.229565
479.655	0.259389
480.84	0.29333
482.025	0.324864
483.21	0.354546
484.395	0.387855
485.58	0.420994
486.765	0.457392
487.95	0.491616
489.135	0.520932
490.32	0.547544
491.505	0.572293
492.69	0.592534
493.875	0.607662
495.06	0.623218
496.245	0.63246
497.43	0.639963
498.615	0.647977
499.8	0.646075
500.985	0.640189
502.17	0.630538
503.355	0.617693
504.54	0.600548
505.725	0.5755
506.91	0.547461
508.095	0.523707
509.28	0.496054
510.465	0.467992
511.65	0.44288
512.835	0.415518
514.02	0.387581
515.205	0.359753
516.39	0.33084
517.575	0.302056
518.76	0.275412
519.945	0.251043
521.13	0.229314
522.315	0.210036
523.5	0.188834
524.685	0.175514
525.87	0.162884
527.055	0.150779
528.24	0.1402
529.424	0.13466
530.61	0.127878
531.795	0.120165
532.98	0.115527
534.165	0.112399
535.35	0.109585
536.535	0.107552
537.72	0.103906
538.905	0.101656
540.09	0.10377
541.275	0.104131
542.46	0.107277
543.645	0.10889
544.83	0.112862
546.014	0.118479
547.199	0.124502
548.384	0.128824
549.569	0.128099
550.754	0.130054
551.939	0.132771
553.124	0.13652
554.309	0.139814
555.494	0.143567
556.679	0.147576
557.864	0.148082
559.049	0.144615
560.234	0.143274
561.419	0.141362
562.604	0.137693
563.789	0.135092
564.974	0.129202
566.159	0.119966
567.344	0.112764
568.529	0.110912
569.714	0.10828
570.899	0.106532
572.084	0.09731
573.269	0.0883617
574.454	0.0812108
575.639	0.0753823
576.824	0.0727244
578.009	0.0721087
579.194	0.0696022
580.379	0.0656062
581.564	0.0631363
582.749	0.0589534
583.934	0.0520965
585.119	0.0466921
586.304	0.0418528
587.489	0.0376628
588.674	0.0344687
589.859	0.0332769
591.044	0.033397
592.229	0.0364943
593.414	0.0388554
594.599	0.0357093
595.784	0.0305107
596.969	0.0279702
598.154	0.0250342
599.339	0.0238608
600.524	0.0234925
601.709	0.022343
602.894	0.0231976
604.079	0.0261953
605.264	0.0250789
606.449	0.0222801
607.634	0.0219923
608.819	0.0213452
610.004	0.0214094
611.189	0.0213629
612.374	0.0174566
613.559	0.0168811
614.744	0.0172356
615.929	0.0163557
617.114	0.0186902
618.299	0.0192709
619.484	0.0204057
620.669	0.0205176
621.854	0.0218056
623.039	0.0248285
624.224	0.0308067
625.409	0.0349897
626.594	0.0349526
627.779	0.0328976
628.964	0.0296435
630.149	0.0263966
631.334	0.0281542
632.519	0.0303683
633.704	0.0300324
634.889	0.0319911
636.074	0.0337306
637.259	0.0342619
638.444	0.0356967
639.629	0.0376388
640.814	0.0378821
641.999	0.037221
643.184	0.0346899
644.369	0.0337768
645.554	0.035607
646.739	0.0364182
647.924	0.038408
649.109	0.0420519
650.294	0.045332
651.479	0.047008
652.664	0.0532584
653.849	0.0536004
655.034	0.0532273
656.219	0.0583125
657.404	0.059674
658.589	0.0629051
659.774	0.0687703
660.959	0.0741865
662.144	0.0811555
663.329	0.0906599
664.514	0.100667
665.699	0.111759
666.884	0.122773
668.069	0.131065
669.254	0.137989
670.439	0.148091
671.624	0.157636
672.809	0.169642
673.994	0.180261
675.179	0.187888
676.364	0.194096
677.549	0.198712
678.734	0.20302
679.919	0.208089
681.104	0.21206
682.289	0.213627
683.474	0.213003
684.659	0.210497
685.844	0.208628
687.029	0.208032
688.214	0.206341
689.399	0.200412
690.584	0.188308
691.769	0.177713
692.954	0.16646
694.139	0.15454
695.324	0.14557
696.509	0.138207
697.694	0.129883
698.879	0.119222
700.064	0.109567
701.249	0.0987933
702.434	0.0860226
703.619	0.0759597
704.804	0.0679015
705.989	0.0614762
707.174	0.0562853
708.359	0.0488883
709.544	0.0481286
710.729	0.0427536
711.914	0.0378623
713.099	0.0371451
714.284	0.0392122
715.469	0.0361079
716.654	0.0336842
717.839	0.0318099
719.024	0.0292975
720.209	0.0298201
721.394	0.0330388
722.579	0.0354508
723.764	0.0355593
724.949	0.0335777
726.134	0.0315403
727.319	0.0301221
728.504	0.028358
729.689	0.0282059
730.874	0.0311845
732.059	0.0262517
733.244	0.0201878
734.429	0.0187719
735.614	0.0245036
736.799	0.0255312
737.984	0.0244881
739.169	0.0242281
740.354	0.0221994
741.539	0.0211709
742.724	0.0216276
743.909	0.0211984
745.094	0.0201955
746.279	0.0201123
747.464	0.0209809
748.649	0.0212506
749.834	0.0199851
751.019	0.0213068
752.204	0.0251114
753.389	0.0291826
754.574	0.0228839
755.759	0.0260084
756.944	0.0298729
758.129	0.0310046
759.314	0.034636
760.499	0.034973
761.684	0.0337604
762.869	0.0324179
764.054	0.032748
765.239	0.0335785
766.424	0.0359406
767.609	0.0398363
768.794	0.0447619
769.979	0.0496952
771.164	0.0498661
772.349	0.0506022
773.534	0.0522621
774.719	0.0511422
775.904	0.0496996
777.089	0.0496904
778.274	0.0501612
779.459	0.052786
780.644	0.0548614
781.829	0.059479
783.014	0.0630361
784.199	0.0675283
785.384	0.0706149
786.569	0.0739098
787.754	0.0754813
788.939	0.078324
790.124	0.0799537
791.309	0.080401
792.494	0.0835995
793.679	0.0868474
794.864	0.088773
796.049	0.0927045
797.234	0.0952324
798.419	0.0981035
799.604	0.106764
800.789	0.112873
801.974	0.12124
803.159	0.132454
804.344	0.141816
805.529	0.150704
806.714	0.163226
807.898	0.180423
809.083	0.202034
810.268	0.220983
811.454	0.240915
812.639	0.263792
813.824	0.285671
815.009	0.309677
816.194	0.334629
817.379	0.358243
818.564	0.381136
819.749	0.403343
820.934	0.422029
822.119	0.437028
823.304	0.454522
824.489	0.471573
825.673	0.485196
826.858	0.493485
828.043	0.503106
829.228	0.515441
830.413	0.523032
831.598	0.534465
832.783	0.545491
833.968	0.555536
835.153	0.56966
836.338	0.582081
837.523	0.597533
838.708	0.615842
839.893	0.637993
841.078	0.660541
842.263	0.683941
843.448	0.710435
844.633	0.738323
845.818	0.766844
847.003	0.795662
848.188	0.824169
849.373	0.850506
850.558	0.873339
851.743	0.895293
852.928	0.914934
854.113	0.928652
855.298	0.939063
856.483	0.944724
857.668	0.948225
858.853	0.945369
860.038	0.938141
861.223	0.926256
862.408	0.908282
863.593	0.890705
864.778	0.865935
865.963	0.837989
867.148	0.809142
868.333	0.780531
869.518	0.748249
870.703	0.711058
871.888	0.675931
873.073	0.639654
874.258	0.604607
875.443	0.569727
876.628	0.535962
877.813	0.501718
878.998	0.468679
880.183	0.43836
881.368	0.40828
882.553	0.378946
883.738	0.352558
884.923	0.328625
886.108	0.304212
887.293	0.280983
888.478	0.264609
889.663	0.250565
890.848	0.237129
892.033	0.228068
893.218	0.221316
894.403	0.212558
895.588	0.208823
896.773	0.211945
897.958	0.213204
899.143	0.218173
900.328	0.225963
901.513	0.235918
902.698	0.241992
903.883	0.25194
905.068	0.269538
906.253	0.286425
907.438	0.30048
908.623	0.31434
909.808	0.328119
910.993	0.341254
912.178	0.356322
913.363	0.369455
914.548	0.378726
915.733	0.390911
916.918	0.403586
918.103	0.413526
919.288	0.422743
920.473	0.431126
921.658	0.439392
922.843	0.445395
924.028	0.446424
925.213	0.444794
926.398	0.443604
927.583	0.440801
928.768	0.433581
929.953	0.42359
931.138	0.415422
932.323	0.406072
933.508	0.396738
934.693	0.379731
935.878	0.361351
937.063	0.343102
938.248	0.324664
939.433	0.311052
940.618	0.290156
941.803	0.268985
942.988	0.2513
944.173	0.234409
945.358	0.220657
946.543	0.205225
947.728	0.192208
948.913	0.176358
950.098	0.164646
951.283	0.155581
952.468	0.148359
953.653	0.143109
954.838	0.13656
956.023	0.131129
957.208	0.12661
958.393	0.123774
959.578	0.123981
960.763	0.124682
961.948	0.125607
963.133	0.127728
964.318	0.132635
965.503	0.138884
966.688	0.145878
967.873	0.154676
969.058	0.162813
970.243	0.170141
971.428	0.177661
972.613	0.186476
973.798	0.195646
974.983	0.204011
976.168	0.211686
977.353	0.218006
978.538	0.223157
979.723	0.226669
980.908	0.230688
982.093	0.23041
983.278	0.232178
984.463	0.231882
985.648	0.23105
986.833	0.225508
988.018	0.219323
989.203	0.214785
990.388	0.209102
991.573	0.205629
992.758	0.204158
993.943	0.201602
995.128	0.201095
996.313	0.198571
997.498	0.198134
998.683	0.197077
999.868	0.196041
1001.05	0.193838
1002.24	0.19339
1003.42	0.192563
1004.61	0.194566
1005.79	0.197758
1006.98	0.197303
1008.16	0.200129
1009.35	0.200346
1010.53	0.200687
1011.72	0.199549
1012.9	0.202601
1014.09	0.205264
1015.27	0.207684
1016.46	0.211298
1017.64	0.217689
1018.83	0.225623
1020.01	0.235644
1021.2	0.245773
1022.38	0.256505
1023.57	0.268851
1024.75	0.285719
1025.94	0.300916
1027.12	0.316609
1028.31	0.334063
1029.49	0.353555
1030.68	0.374477
1031.86	0.396269
1033.05	0.421121
1034.23	0.446786
1035.42	0.472221
1036.6	0.498626
1037.79	0.524736
1038.97	0.550746
1040.16	0.576776
1041.34	0.601969
1042.53	0.624853
1043.71	0.64921
1044.9	0.677397
1046.08	0.701791
1047.27	0.723266
1048.45	0.74115
1049.64	0.755502
1050.82	0.765548
1052.01	0.775357
1053.19	0.78435
1054.38	0.791317
1055.56	0.795227
1056.75	0.797097
1057.93	0.798277
1059.12	0.796412
1060.3	0.792979
1061.49	0.78828
1062.67	0.778019
1063.86	0.768971
1065.04	0.75837
1066.23	0.748909
1067.41	0.735081
1068.6	0.723653
1069.78	0.711973
1070.97	0.698888
1072.15	0.682525
1073.34	0.668579
1074.52	0.658099
1075.71	0.642981
1076.89	0.628929
1078.08	0.617267
1079.26	0.607307
1080.45	0.597744
1081.63	0.586099
1082.82	0.573602
1084	0.559786
1085.19	0.550341
1086.37	0.542589
1087.56	0.536157
1088.74	0.528918
1089.93	0.521444
1091.11	0.515841
1092.3	0.506258
1093.48	0.498304
1094.67	0.491861
1095.85	0.486904
1097.04	0.478945
1098.22	0.473912
1099.41	0.46971
1100.59	0.470158
1101.78	0.469942
1102.96	0.469326
1104.15	0.468868
1105.33	0.465109
1106.52	0.460371
1107.7	0.462127
1108.89	0.461242
1110.07	0.459813
1111.26	0.459555
1112.44	0.455601
1113.63	0.448237
1114.81	0.440501
1116	0.43261
1117.18	0.422312
1118.37	0.412584
1119.55	0.399716
1120.74	0.382026
1121.92	0.367043
1123.11	0.348715
1124.29	0.333641
1125.48	0.313516
1126.66	0.290799
1127.85	0.269449
1129.03	0.249828
1130.22	0.233966
1131.4	0.216893
1132.59	0.202568
1133.77	0.18551
1134.96	0.169821
1136.14	0.150851
1137.33	0.135252
1138.51	0.122877
1139.7	0.112078
1140.88	0.101684
1142.07	0.0907494
1143.25	0.0820414
1144.44	0.0751712
1145.62	0.068803
1146.81	0.0655607
1147.99	0.0603359
1149.18	0.0562172
1150.36	0.0514717
1151.55	0.0494627
1152.73	0.0441056
1153.92	0.0417168
1155.1	0.0405598
1156.29	0.0416374
1157.47	0.0394452
1158.66	0.039634
1159.84	0.0400609
1161.03	0.0376145
1162.21	0.0357411
1163.4	0.0348489
1164.58	0.0300677
1165.77	0.0286121
1166.95	0.0274217
1168.14	0.0258131
1169.32	0.0204865
1170.51	0.019774
1171.69	0.0200259
1172.88	0.0190854
1174.06	0.0167943
1175.25	0.0153392
1176.43	0.0156696
1177.62	0.0163605
1178.8	0.0185087
1179.99	0.0191711
1181.17	0.0199926
1182.36	0.0216338
1183.54	0.0233837
1184.73	0.0248141
1185.91	0.0276337
1187.1	0.0331573
1188.28	0.0363223
1189.47	0.0384956
1190.65	0.0429104
1191.84	0.0486384
1193.02	0.054434
1194.21	0.0581633
1195.39	0.0605474
1196.58	0.0659499
1197.76	0.0717022
1198.95	0.0755514
1200.13	0.0785484
1201.32	0.0801509
1202.5	0.081727
1203.69	0.0840996
1204.87	0.0878203
1206.06	0.0902821
1207.24	0.0892668
1208.43	0.0900273
1209.61	0.0922714
1210.8	0.090312
1211.98	0.0923848
1213.17	0.0941331
1214.35	0.0944906
1215.54	0.0962256
1216.72	0.0981264
1217.91	0.0993954
1219.09	0.104439
1220.28	0.107491
1221.46	0.105965
1222.65	0.104471
1223.83	0.108334
1225.02	0.11662
1226.2	0.115572
1227.39	0.118694
1228.57	0.122174
1229.76	0.119613
1230.94	0.122757
1232.13	0.12351
1233.31	0.127136
1234.5	0.133636
1235.68	0.139997
1236.87	0.142206
1238.05	0.149151
1239.24	0.160178
1240.42	0.166059
1241.61	0.170726
1242.79	0.176504
1243.98	0.187398
1245.16	0.193412
1246.35	0.20116
1247.53	0.211514
1248.72	0.216978
1249.9	0.222241
1251.09	0.222132
1252.27	0.224414
1253.46	0.227779
1254.64	0.228313
1255.83	0.225219
1257.01	0.222241
1258.2	0.223676
1259.38	0.223812
1260.57	0.221281
1261.75	0.216786
1262.94	0.212846
1264.12	0.210037
1265.31	0.206945
1266.49	0.206096
1267.68	0.20737
1268.86	0.204234
1270.05	0.198502
1271.23	0.195372
1272.42	0.195105
1273.6	0.197244
1274.79	0.197225
1275.97	0.191995
1277.16	0.186481
1278.34	0.180669
1279.53	0.177913
1280.71	0.17705
1281.9	0.175381
1283.08	0.173612
1284.27	0.167555
1285.45	0.165106
1286.64	0.165838
1287.82	0.163228
1289.01	0.162792
1290.19	0.157373
1291.38	0.151879
1292.56	0.14923
1293.75	0.150104
1294.93	0.148811
1296.12	0.149152
1297.3	0.149242
1298.49	0.148324
1299.67	0.1454
1300.86	0.143382
1302.04	0.14079
1303.23	0.140437
1304.41	0.140798
1305.6	0.140574
1306.78	0.142439
1307.97	0.145818
1309.15	0.148425
1310.34	0.152519
1311.52	0.157449
1312.71	0.162411
1313.89	0.165809
1315.08	0.1669
1316.26	0.169089
1317.45	0.170306
1318.63	0.175852
1319.82	0.179082
1321	0.180663
1322.19	0.182883
1323.37	0.184285
1324.56	0.182774
1325.74	0.182797
1326.93	0.17889
1328.11	0.17227
1329.3	0.169232
1330.48	0.165926
1331.67	0.164089
1332.85	0.162388
1334.04	0.158373
1335.22	0.159376
1336.41	0.15721
1337.59	0.155371
1338.78	0.155166
1339.96	0.15345
1341.15	0.1502
1342.33	0.152443
1343.52	0.153906
1344.7	0.156134
1345.89	0.159245
1347.07	0.159323
1348.26	0.158106
1349.44	0.156715
1350.63	0.157351
1351.81	0.157145
1353	0.152835
1354.18	0.152133
1355.37	0.151217
1356.55	0.152475
1357.74	0.15562
1358.92	0.157482
1360.11	0.156855
1361.29	0.158013
1362.48	0.154894
1363.66	0.156494
1364.85	0.156623
1366.03	0.158179
1367.22	0.159447
1368.4	0.160506
1369.59	0.163252
1370.77	0.165461
1371.96	0.165313
1373.14	0.163961
1374.33	0.161135
1375.51	0.159069
1376.7	0.155721
1377.88	0.155632
1379.07	0.154603
1380.25	0.153218
1381.44	0.153665
1382.62	0.153876
1383.81	0.154684
1384.99	0.153218
1386.18	0.150892
1387.36	0.148639
1388.55	0.149803
1389.73	0.149682
1390.92	0.148884
1392.1	0.146339
1393.29	0.14943
1394.47	0.143587
1395.66	0.142992
1396.84	0.142765
1398.03	0.140564
1399.21	0.141506
1400.4	0.142276
1401.58	0.142163
1402.77	0.143431
1403.95	0.142594
1405.14	0.143902
1406.32	0.142191
1407.51	0.141356
1408.69	0.141641
1409.88	0.141849
1411.06	0.141472
1412.25	0.14174
1413.43	0.145101
1414.62	0.148371
1415.8	0.149729
1416.99	0.1465
1418.17	0.146199
1419.36	0.143835
1420.54	0.14889
1421.73	0.151156
1422.91	0.148475
1424.1	0.148575
1425.28	0.149222
1426.47	0.149655
1427.65	0.14981
1428.84	0.149892
1430.02	0.14816
1431.21	0.146701
1432.39	0.145864
1433.58	0.147165
1434.76	0.150478
1435.95	0.153798
1437.13	0.157807
1438.32	0.160613
1439.5	0.168162
1440.69	0.174361
1441.87	0.185591
1443.06	0.194251
1444.24	0.20439
1445.43	0.219185
1446.61	0.233567
1447.8	0.248944
1448.98	0.262127
1450.17	0.278682
1451.35	0.297636
1452.54	0.312495
1453.72	0.326532
1454.91	0.342581
1456.09	0.36081
1457.28	0.379028
1458.46	0.394993
1459.65	0.411092
1460.83	0.42732
1462.02	0.441643
1463.2	0.454626
1464.39	0.464947
1465.57	0.475572
1466.76	0.482015
1467.94	0.484567
1469.13	0.489012
1470.31	0.491756
1471.5	0.488799
1472.68	0.483157
1473.87	0.475634
1475.05	0.468114
1476.24	0.45675
1477.42	0.439734
1478.61	0.421394
1479.79	0.402968
1480.98	0.384166
1482.16	0.363795
1483.35	0.344171
1484.53	0.32296
1485.72	0.302397
1486.9	0.280549
1488.09	0.260479
1489.27	0.23841
1490.46	0.22114
1491.64	0.198841
1492.83	0.183659
1494.01	0.167221
1495.2	0.155476
1496.38	0.143895
1497.57	0.133045
1498.75	0.123423
1499.94	0.114933
1501.12	0.10658
1502.31	0.0986703
1503.49	0.0924159
1504.68	0.0889863
1505.86	0.0884065
1507.05	0.0855259
1508.23	0.0876384
1509.42	0.0823999
1510.6	0.0811525
1511.79	0.0817302
1512.97	0.0784212
1514.16	0.0767074
1515.34	0.0754697
1516.53	0.0739966
1517.71	0.0724689
1518.9	0.0718311
1520.08	0.0726811
1521.27	0.0702932
1522.45	0.0659791
1523.64	0.064098
1524.82	0.0620001
1526.01	0.0602146
1527.19	0.0619881
1528.38	0.0567169
1529.56	0.0557592
1530.75	0.0556285
1531.93	0.0541065
1533.12	0.0533466
1534.3	0.0537773
1535.49	0.0528208
1536.67	0.0490933
1537.86	0.0495095
1539.04	0.0511762
1540.23	0.0508865
1541.41	0.0507004
1542.6	0.0511808
1543.78	0.0496302
1544.97	0.0510491
1546.15	0.0522065
1547.34	0.0527455
1548.52	0.0512839
1549.71	0.0498039
1550.89	0.0483776
1552.08	0.0480345
1553.26	0.0483592
1554.45	0.0485876
1555.63	0.0459951
1556.82	0.0431976
1558	0.0406731
1559.19	0.0392105
1560.37	0.0382297
1561.56	0.0362972
1562.74	0.0348838
1563.93	0.0333973
1565.11	0.0338285
1566.3	0.032177
1567.48	0.0311081
1568.67	0.0300473
1569.85	0.0304517
1571.04	0.0303599
1572.22	0.0317304
1573.41	0.0323057
1574.59	0.0329221
1575.78	0.033052
1576.96	0.0329339
1578.15	0.0324447
1579.33	0.0311071
1580.52	0.0313941
1581.7	0.0316629
1582.89	0.0319456
1584.07	0.0322601
1585.26	0.0315381
1586.44	0.0302455
1587.63	0.0290071
1588.81	0.0275268
1590	0.0264687
1591.18	0.0246927
1592.37	0.0227774
1593.55	0.0222089
1594.74	0.0221271
1595.92	0.0232976
1597.11	0.0231148
1598.29	0.0217991
1599.48	0.0225267
1600.66	0.0215297
1601.85	0.020952
1603.03	0.021655
1604.22	0.020241
1605.4	0.0197165
1606.59	0.020351
1607.77	0.0203184
1608.96	0.0204303
1610.14	0.0196295
1611.33	0.0207062
1612.51	0.020056
1613.7	0.018452
1614.88	0.0186589
1616.07	0.0182224
1617.25	0.0199624
1618.44	0.0216431
1619.62	0.0211839
1620.81	0.0205311
1621.99	0.0188343
1623.18	0.0168239
1624.36	0.0168156
1625.55	0.0192344
1626.73	0.0199867
1627.92	0.0179041
1629.1	0.0187767
1630.29	0.0196829
1631.47	0.0184041
1632.66	0.0164537
1633.84	0.0139748
1635.03	0.0141578
1636.21	0.01656
1637.4	0.0189907
1638.58	0.0211089
1639.77	0.0237378
1640.95	0.0225677
1642.14	0.0230561
1643.32	0.0243746
1644.51	0.0260365
1645.69	0.0254643
1646.88	0.0255404
1648.06	0.0270814
1649.25	0.0300301
1650.43	0.033288
1651.62	0.034106
1652.8	0.0329126
1653.99	0.0324656
1655.17	0.0338262
1656.36	0.0349343
1657.54	0.0380728
1658.73	0.039773
1659.91	0.0409482
1661.1	0.0408344
1662.28	0.0427285
1663.47	0.0445081
1664.65	0.0454021
1665.84	0.0460524
1667.02	0.0476234
1668.21	0.0475845
1669.39	0.051351
1670.58	0.0527339
1671.76	0.053635
1672.95	0.0544535
1674.13	0.0550322
1675.32	0.0524904
1676.5	0.0528162
1677.69	0.0557209
1678.87	0.0572158
1680.06	0.0579634
1681.24	0.0595838
1682.43	0.0602231
1683.61	0.0592661
1684.8	0.0601004
1685.98	0.0589081
1687.17	0.0600784
1688.35	0.0613012
1689.54	0.0614648
1690.72	0.0605944
1691.91	0.0616144
1693.09	0.0614287
1694.28	0.0607551
1695.46	0.0589228
1696.65	0.058079
1697.83	0.0554719
1699.02	0.0548657
1700.2	0.05193
1701.39	0.0505647
1702.57	0.0515379
1703.76	0.05009
1704.94	0.0482975
1706.13	0.0477759
1707.31	0.047302
1708.5	0.0469785
1709.68	0.0474935
1710.87	0.0467495
1712.05	0.0445284
1713.24	0.0461516
1714.42	0.047851
1715.61	0.0469094
1716.79	0.0498119
1717.98	0.0491569
1719.16	0.0481274
1720.35	0.0477581
1721.53	0.0478924
1722.72	0.0467351
1723.9	0.0469536
1725.09	0.0477681
1726.27	0.0484091
1727.46	0.0462658
1728.64	0.0517565
1729.83	0.0478825
1731.01	0.0476976
1732.2	0.0493602
1733.38	0.0497805
1734.57	0.0494359
1735.75	0.0491882
1736.94	0.0505551
1738.12	0.0492369
1739.31	0.0501677
1740.49	0.0488681
1741.68	0.0463011
1742.86	0.0436729
1744.05	0.043481
1745.23	0.041323
1746.42	0.0433233
1747.6	0.0417362
1748.79	0.0392094
1749.97	0.0383721
1751.16	0.0401366
1752.34	0.0405241
1753.53	0.0398398
1754.71	0.040235
1755.9	0.0384824
1757.08	0.0401164
1758.27	0.0400877
1759.45	0.0413564
1760.64	0.0429679
1761.82	0.0432429
1763.01	0.0426597
1764.19	0.0436926
1765.38	0.0442395
1766.56	0.0437751
1767.75	0.0421853
1768.93	0.0406301
1770.12	0.0390829
1771.3	0.0381956
1772.49	0.0393201
1773.67	0.0382208
1774.86	0.037497
1776.04	0.0348101
1777.23	0.0316227
1778.41	0.0296143
1779.6	0.0295159
1780.78	0.0283522
1781.97	0.027197
1783.15	0.026786
1784.34	0.0243404
1785.52	0.0226646
1786.71	0.0212607
1787.89	0.021087
1789.08	0.0202132
1790.26	0.0214577
1791.45	0.0208514
1792.63	0.0209741
1793.82	0.021395
1795	0.020303
