405	-0.0102885
406.185	-0.00618436
407.37	0.00177073
408.555	0.0133272
409.74	0.0292715
410.925	0.0473685
412.11	0.065486
413.295	0.0852119
414.48	0.106959
415.665	0.124333
416.85	0.144709
418.035	0.165329
419.22	0.177661
420.405	0.200385
421.59	0.222887
422.775	0.245966
423.96	0.269149
425.145	0.289064
426.33	0.30395
427.515	0.314764
428.7	0.322555
429.885	0.323898
431.07	0.326715
432.255	0.334199
433.44	0.32768
434.625	0.316159
435.81	0.303933
436.995	0.291326
438.18	0.278997
439.365	0.266884
440.55	0.253822
441.735	0.243074
442.92	0.218583
444.105	0.205719
445.29	0.195651
446.475	0.182514
447.66	0.16958
448.845	0.155288
450.03	0.142082
451.215	0.128698
452.4	0.112254
453.585	0.108725
454.77	0.102304
455.955	0.0977954
457.14	0.0930439
458.325	0.0886815
459.51	0.0814996
460.695	0.0782975
461.88	0.0735367
463.065	0.0690373
464.25	0.0681229
465.435	0.0669527
466.62	0.0739364
467.805	0.082246
468.99	0.0881782
470.175	0.0984242
471.36	0.111539
472.545	0.12487
473.73	0.147272
474.915	0.17315
476.1	0.196798
477.285	0.222884
478.47	0.254927
479.655	0.28455
480.84	0.312832
482.025	0.35364
483.21	0.391443
484.395	0.422896
485.58	0.455192
486.765	0.487102
487.95	0.524274
489.135	0.556152
490.32	0.584334
491.505	0.620917
492.69	0.654422
493.875	0.673785
495.06	0.693803
496.245	0.713312
497.43	0.726415
498.615	0.735676
499.8	0.743704
500.985	0.745519
502.17	0.74053
503.355	0.730215
504.54	0.716149
505.725	0.700536
506.91	0.683751
508.095	0.662499
509.28	0.643197
510.465	0.608625
511.65	0.573884
512.835	0.543728
514.02	0.514142
515.205	0.483286
516.39	0.447805
517.575	0.41472
518.76	0.387302
519.945	0.358245
521.13	0.330228
522.315	0.306306
523.5	0.295805
524.685	0.273275
525.87	0.251196
527.055	0.233162
528.24	0.220146
529.424	0.211255
530.609	0.199731
531.794	0.188485
532.98	0.179682
534.165	0.171326
535.35	0.170192
536.535	0.172286
537.72	0.16959
538.905	0.162527
540.09	0.164445
541.275	0.165877
542.46	0.160981
543.645	0.163245
544.83	0.169633
546.015	0.17486
547.199	0.180325
548.384	0.185198
549.569	0.188409
550.754	0.198537
551.939	0.200437
553.124	0.202496
554.309	0.204217
555.494	0.203965
556.679	0.202694
557.864	0.204106
559.049	0.205518
560.234	0.206224
561.419	0.205792
562.604	0.203033
563.789	0.197478
564.974	0.191967
566.159	0.191038
567.344	0.183789
568.529	0.179955
569.714	0.172514
570.899	0.168487
572.084	0.162544
573.269	0.155234
574.454	0.150356
575.639	0.149064
576.824	0.14626
578.009	0.138176
579.194	0.128486
580.379	0.122543
581.564	0.119859
582.749	0.120135
583.934	0.122088
585.119	0.112801
586.304	0.104652
587.489	0.105214
588.674	0.0993832
589.859	0.0967754
591.044	0.0965687
592.229	0.0943458
593.414	0.0894549
594.599	0.0841255
595.784	0.080648
596.969	0.0796132
598.154	0.0793478
599.339	0.0732834
600.524	0.0716264
601.709	0.0634508
602.894	0.0543278
604.079	0.0526106
605.264	0.0539515
606.449	0.0486963
607.634	0.0462966
608.819	0.041538
610.004	0.0371443
611.189	0.0399722
612.374	0.0417333
613.559	0.038961
614.744	0.0311529
615.929	0.0268295
617.114	0.0235069
618.299	0.02541
619.484	0.0237809
620.669	0.0259975
621.854	0.0290315
623.039	0.0253461
624.224	0.0196396
625.409	0.021242
626.594	0.0232182
627.779	0.0242595
628.964	0.027388
630.149	0.0217003
631.334	0.0176043
632.519	0.0160556
633.704	0.013299
634.889	0.0073578
636.074	0.00151012
637.259	-0.00304791
638.444	-0.00178844
639.629	-0.00286498
640.814	-0.00739552
641.999	-0.00879614
643.184	-0.00405449
644.369	-0.00255354
645.554	-0.00510196
646.739	-0.0060627
647.924	-0.0105657
649.109	-0.00800047
650.294	-0.00629807
651.479	-0.00396534
652.664	0.00716182
653.849	0.0119732
655.034	0.0209119
656.219	0.0272068
657.404	0.0275321
658.589	0.031783
659.774	0.0369539
660.959	0.039517
662.144	0.0415742
663.329	0.0454082
664.514	0.051005
665.699	0.0576299
666.884	0.0643119
668.069	0.0705627
669.254	0.0747939
670.439	0.0802774
671.624	0.0892591
672.809	0.0983578
673.994	0.10673
675.179	0.115676
676.364	0.121002
677.549	0.124489
678.734	0.127304
679.919	0.135673
681.104	0.144911
682.289	0.148316
683.474	0.148105
684.659	0.146908
685.844	0.147721
687.029	0.149747
688.214	0.147042
689.399	0.138829
690.584	0.124316
691.769	0.119095
692.954	0.107312
694.139	0.0931149
695.324	0.0925491
696.509	0.0840447
697.694	0.0770493
698.879	0.0679134
700.064	0.0569543
701.249	0.051332
702.434	0.0466448
703.619	0.0385487
704.804	0.0317774
705.989	0.0222376
707.174	0.016121
708.359	0.0168112
709.544	0.0139908
710.729	0.00754648
711.914	0.00936831
713.099	0.00975297
714.284	-0.000258582
715.469	-0.00280538
716.654	-0.00103264
717.839	0.000908394
719.024	-0.00261361
720.209	-0.00661373
721.394	-0.005739
722.579	-0.0019588
723.764	-0.000710792
724.949	-0.00282716
726.134	-0.00122123
727.319	0.00335163
728.504	0.00355837
729.689	0.0128116
730.874	0.0179426
732.059	0.0224637
733.244	0.0301978
734.429	0.0335592
735.614	0.0397505
736.799	0.0395966
737.984	0.0439187
739.169	0.0467715
740.354	0.046122
741.539	0.046054
742.724	0.0472904
743.909	0.048114
745.094	0.0470363
746.279	0.0472943
747.464	0.050665
748.649	0.0484884
749.834	0.0469741
751.019	0.0420782
752.204	0.0406045
753.389	0.0423486
754.574	0.0349512
755.759	0.0400844
756.944	0.043078
758.129	0.046819
759.314	0.044906
760.499	0.0377364
761.684	0.0382311
762.869	0.0421824
764.054	0.0424298
765.239	0.0376819
766.424	0.0331667
767.609	0.0315349
768.794	0.0323758
769.979	0.0320345
771.164	0.0256018
772.349	0.0227096
773.534	0.0182179
774.719	0.0123006
775.904	0.0119304
777.089	0.00810363
778.274	0.0121291
779.459	0.0182204
780.644	0.0183536
781.829	0.0177526
783.014	0.0210978
784.199	0.0251047
785.384	0.0289867
786.569	0.0283554
787.754	0.0294893
788.939	0.0389967
790.124	0.0459268
791.309	0.049066
792.494	0.0550422
793.679	0.0592063
794.864	0.0596008
796.049	0.0615518
797.234	0.0640108
798.419	0.0618783
799.604	0.0621918
800.789	0.0643975
801.974	0.0698179
803.159	0.078592
804.344	0.081928
805.529	0.0928087
806.714	0.103965
807.899	0.113246
809.084	0.125801
810.269	0.145905
811.454	0.160778
812.638	0.178502
813.823	0.197827
815.008	0.221421
816.193	0.247323
817.378	0.274169
818.563	0.304378
819.748	0.330748
820.934	0.34875
822.119	0.3683
823.304	0.391133
824.489	0.411531
825.674	0.427543
826.859	0.436925
828.044	0.451487
829.229	0.455164
830.413	0.471221
831.598	0.477378
832.783	0.483976
833.968	0.492739
835.153	0.504749
836.338	0.515772
837.523	0.523641
838.708	0.539286
839.893	0.56123
841.078	0.584346
842.263	0.608762
843.448	0.634343
844.633	0.663526
845.818	0.697328
847.003	0.734899
848.188	0.771222
849.373	0.802205
850.558	0.832138
851.743	0.861406
852.928	0.885105
854.113	0.905837
855.298	0.9212
856.483	0.937787
857.668	0.94647
858.853	0.948225
860.038	0.941037
861.223	0.934227
862.408	0.92218
863.593	0.906145
864.778	0.883689
865.963	0.855079
867.148	0.83264
868.333	0.809595
869.518	0.786149
870.703	0.756434
871.888	0.724928
873.073	0.695523
874.258	0.664696
875.443	0.631438
876.628	0.59839
877.813	0.56873
878.998	0.538496
880.183	0.510763
881.368	0.489403
882.553	0.466805
883.738	0.443073
884.923	0.420504
886.108	0.394834
887.293	0.373637
888.478	0.354728
889.663	0.345388
890.848	0.337246
892.033	0.327487
893.218	0.313922
894.403	0.314183
895.588	0.316793
896.773	0.316201
897.958	0.314769
899.143	0.317874
900.328	0.317491
901.513	0.325693
902.698	0.337926
903.883	0.348033
905.068	0.360797
906.253	0.378618
907.438	0.390947
908.623	0.398043
909.808	0.408716
910.993	0.428865
912.178	0.4492
913.363	0.463161
914.548	0.477
915.733	0.494668
916.918	0.509847
918.103	0.52421
919.288	0.540408
920.473	0.551487
921.658	0.55783
922.843	0.56509
924.028	0.570559
925.213	0.570802
926.398	0.573318
927.583	0.578458
928.768	0.576535
929.953	0.569227
931.138	0.55565
932.323	0.549709
933.508	0.538389
934.693	0.52809
935.878	0.513952
937.063	0.491978
938.248	0.472504
939.433	0.461111
940.618	0.444146
941.803	0.423966
942.988	0.401999
944.173	0.381507
945.358	0.36076
946.543	0.343176
947.728	0.323506
948.913	0.309472
950.098	0.294864
951.283	0.279943
952.468	0.267728
953.653	0.257163
954.838	0.250847
956.023	0.24228
957.208	0.231247
958.393	0.228296
959.578	0.229554
960.763	0.232667
961.948	0.236634
963.133	0.241986
964.318	0.24628
965.503	0.24688
966.688	0.250304
967.873	0.257628
969.058	0.267846
970.243	0.278535
971.428	0.284058
972.613	0.29192
973.798	0.301617
974.983	0.311466
976.168	0.315501
977.353	0.317588
978.538	0.31966
979.723	0.324663
980.908	0.328258
982.093	0.323994
983.278	0.325722
984.463	0.332833
985.648	0.331064
986.833	0.324562
988.018	0.320327
989.203	0.315606
990.388	0.309809
991.573	0.305364
992.758	0.300133
993.943	0.298916
995.128	0.299682
996.313	0.297817
997.498	0.294393
998.683	0.294763
999.868	0.301005
1001.05	0.30483
1002.24	0.299436
1003.42	0.300294
1004.61	0.302772
1005.79	0.305005
1006.98	0.309304
1008.16	0.309155
1009.35	0.310795
1010.53	0.310488
1011.72	0.308704
1012.9	0.305834
1014.09	0.309211
1015.27	0.308109
1016.46	0.30464
1017.64	0.305556
1018.83	0.310798
1020.01	0.319852
1021.2	0.329296
1022.38	0.337642
1023.57	0.343172
1024.75	0.35202
1025.94	0.370422
1027.12	0.391404
1028.31	0.409451
1029.49	0.428559
1030.68	0.450082
1031.86	0.467167
1033.05	0.487992
1034.23	0.515783
1035.42	0.544507
1036.6	0.572039
1037.79	0.598686
1038.97	0.625322
1040.16	0.650576
1041.34	0.677841
1042.53	0.703215
1043.71	0.725303
1044.9	0.7465
1046.08	0.766776
1047.27	0.78652
1048.45	0.799228
1049.64	0.811776
1050.82	0.830366
1052.01	0.842171
1053.19	0.845097
1054.38	0.845059
1055.56	0.847449
1056.75	0.846601
1057.93	0.842664
1059.12	0.838981
1060.3	0.830265
1061.49	0.823743
1062.67	0.80592
1063.86	0.792727
1065.04	0.775933
1066.23	0.771061
1067.41	0.763611
1068.6	0.746552
1069.78	0.729166
1070.97	0.718579
1072.15	0.705653
1073.34	0.689854
1074.52	0.67307
1075.71	0.661439
1076.89	0.645419
1078.08	0.637547
1079.26	0.625394
1080.45	0.618391
1081.63	0.607081
1082.82	0.607533
1084	0.594203
1085.19	0.587481
1086.37	0.579175
1087.56	0.57438
1088.74	0.565967
1089.93	0.556259
1091.11	0.553219
1092.3	0.550162
1093.48	0.541585
1094.67	0.537407
1095.85	0.53047
1097.04	0.521932
1098.22	0.514541
1099.41	0.510032
1100.59	0.501549
1101.78	0.498976
1102.96	0.490722
1104.15	0.489063
1105.33	0.483701
1106.52	0.475775
1107.7	0.474689
1108.89	0.472741
1110.07	0.466654
1111.26	0.45735
1112.44	0.452871
1113.63	0.449641
1114.81	0.443828
1116	0.438387
1117.18	0.430973
1118.37	0.427107
1119.55	0.414798
1120.74	0.40555
1121.92	0.391019
1123.11	0.376587
1124.29	0.362804
1125.48	0.345197
1126.66	0.320291
1127.85	0.303589
1129.03	0.296434
1130.22	0.27772
1131.4	0.257432
1132.59	0.241051
1133.77	0.226276
1134.96	0.209904
1136.14	0.190879
1137.33	0.180235
1138.51	0.161038
1139.7	0.149308
1140.88	0.134959
1142.07	0.124813
1143.25	0.107981
1144.44	0.0976639
1145.62	0.0887867
1146.81	0.0767505
1147.99	0.0699847
1149.18	0.0599799
1150.36	0.0520273
1151.55	0.0441689
1152.73	0.0413962
1153.92	0.0346456
1155.1	0.0280279
1156.29	0.0254823
1157.47	0.0183009
1158.66	0.0154769
1159.84	0.0127586
1161.03	0.0163019
1162.21	0.015342
1163.4	0.0143493
1164.58	0.0154366
1165.77	0.0125175
1166.95	0.0160055
1168.14	0.0173415
1169.32	0.0148336
1170.51	0.0107104
1171.69	0.0126375
1172.88	0.0111264
1174.06	0.0117948
1175.25	0.0162575
1176.43	0.0154077
1177.62	0.0148539
1178.8	0.0151443
1179.99	0.011926
1181.17	0.00421511
1182.36	-0.00307839
1183.54	-0.00377181
1184.73	-0.00603409
1185.91	-0.0072123
1187.1	-0.00399036
1188.28	-0.000511758
1189.47	0.00442911
1190.65	0.0105332
1191.84	0.01172
1193.02	0.0131067
1194.21	0.0206423
1195.39	0.0245422
1196.58	0.0266938
1197.76	0.0355385
1198.95	0.043127
1200.13	0.0506787
1201.32	0.0566281
1202.5	0.0613358
1203.69	0.0677241
1204.87	0.0734451
1206.06	0.0746693
1207.24	0.0707858
1208.43	0.0729196
1209.61	0.073717
1210.8	0.0715393
1211.98	0.0690979
1213.17	0.0689247
1214.35	0.0693275
1215.54	0.0705726
1216.72	0.0751776
1217.91	0.073971
1219.09	0.0779953
1220.28	0.0774669
1221.46	0.0737682
1222.65	0.0711941
1223.83	0.068163
1225.02	0.0699048
1226.2	0.0685758
1227.39	0.0754778
1228.57	0.0829501
1229.76	0.0892575
1230.94	0.0936577
1232.13	0.0938358
1233.31	0.0953317
1234.5	0.100721
1235.68	0.112031
1236.87	0.108849
1238.05	0.110682
1239.24	0.112653
1240.42	0.118076
1241.61	0.125388
1242.79	0.131787
1243.98	0.139542
1245.16	0.144612
1246.35	0.144174
1247.53	0.143842
1248.72	0.152404
1249.9	0.15938
1251.09	0.160823
1252.27	0.168868
1253.46	0.175191
1254.64	0.184715
1255.83	0.191745
1257.01	0.193677
1258.2	0.197257
1259.38	0.202351
1260.57	0.204161
1261.75	0.202424
1262.94	0.198733
1264.12	0.201524
1265.31	0.203659
1266.49	0.203836
1267.68	0.20617
1268.86	0.204986
1270.05	0.19898
1271.23	0.192322
1272.42	0.184297
1273.6	0.184581
1274.79	0.186483
1275.97	0.182783
1277.16	0.178085
1278.34	0.168548
1279.53	0.165582
1280.71	0.160516
1281.9	0.157249
1283.08	0.155195
1284.27	0.153442
1285.45	0.151087
1286.64	0.145213
1287.82	0.142085
1289.01	0.142089
1290.19	0.145193
1291.38	0.139239
1292.56	0.140093
1293.75	0.134025
1294.93	0.130689
1296.12	0.132623
1297.3	0.136095
1298.49	0.141117
1299.67	0.140271
1300.86	0.139882
1302.04	0.142335
1303.23	0.141903
1304.41	0.145761
1305.6	0.15017
1306.78	0.155766
1307.97	0.160748
1309.15	0.16074
1310.34	0.16198
1311.52	0.169574
1312.71	0.17487
1313.89	0.179929
1315.08	0.181318
1316.26	0.186327
1317.45	0.19042
1318.63	0.191631
1319.82	0.194344
1321	0.194356
1322.19	0.191246
1323.37	0.191712
1324.56	0.19248
1325.74	0.19528
1326.93	0.202926
1328.11	0.203334
1329.3	0.200918
1330.48	0.200663
1331.67	0.200645
1332.85	0.203183
1334.04	0.197334
1335.22	0.193957
1336.41	0.189703
1337.59	0.191787
1338.78	0.192994
1339.96	0.192193
1341.15	0.187662
1342.33	0.183807
1343.52	0.177421
1344.7	0.172425
1345.89	0.169475
1347.07	0.171125
1348.26	0.169449
1349.44	0.16602
1350.63	0.163411
1351.81	0.161335
1353	0.160065
1354.18	0.155468
1355.37	0.154439
1356.55	0.153812
1357.74	0.155647
1358.92	0.153518
1360.11	0.156036
1361.29	0.155936
1362.48	0.157463
1363.66	0.16015
1364.85	0.152314
1366.03	0.153109
1367.22	0.149587
1368.4	0.149669
1369.59	0.1534
1370.77	0.149815
1371.96	0.147797
1373.14	0.142241
1374.33	0.138517
1375.51	0.136271
1376.7	0.135159
1377.88	0.130714
1379.07	0.128644
1380.25	0.128621
1381.44	0.129892
1382.62	0.1278
1383.81	0.123976
1384.99	0.124366
1386.18	0.12141
1387.36	0.124495
1388.55	0.128189
1389.73	0.135856
1390.92	0.137385
1392.1	0.139661
1393.29	0.139212
1394.47	0.144845
1395.66	0.143943
1396.84	0.141682
1398.03	0.139065
1399.21	0.142049
1400.4	0.150383
1401.58	0.156598
1402.77	0.159735
1403.95	0.16343
1405.14	0.163693
1406.32	0.162545
1407.51	0.164102
1408.69	0.166908
1409.88	0.167244
1411.06	0.16645
1412.25	0.166614
1413.43	0.173683
1414.62	0.176722
1415.8	0.178797
1416.99	0.180341
1418.17	0.179605
1419.36	0.17762
1420.54	0.171893
1421.73	0.166927
1422.91	0.168781
1424.1	0.166161
1425.28	0.162766
1426.47	0.166872
1427.65	0.168505
1428.84	0.172779
1430.02	0.174896
1431.21	0.173667
1432.39	0.177974
1433.58	0.184792
1434.76	0.188795
1435.95	0.195219
1437.13	0.206169
1438.32	0.215951
1439.5	0.224506
1440.69	0.235469
1441.87	0.245694
1443.06	0.256562
1444.24	0.266587
1445.43	0.285382
1446.61	0.297443
1447.8	0.313785
1448.98	0.332775
1450.17	0.342856
1451.35	0.35809
1452.54	0.378889
1453.72	0.394358
1454.91	0.410291
1456.09	0.430572
1457.28	0.451698
1458.46	0.473684
1459.65	0.491055
1460.83	0.504602
1462.02	0.51557
1463.2	0.529194
1464.39	0.54532
1465.57	0.558316
1466.76	0.563326
1467.94	0.56507
1469.13	0.564651
1470.31	0.563635
1471.5	0.562101
1472.68	0.554267
1473.87	0.539093
1475.05	0.524603
1476.24	0.509415
1477.42	0.49217
1478.61	0.472647
1479.79	0.448165
1480.98	0.420892
1482.16	0.388806
1483.35	0.364179
1484.53	0.343132
1485.72	0.319103
1486.9	0.296857
1488.09	0.276441
1489.27	0.255058
1490.46	0.234663
1491.64	0.213598
1492.83	0.191569
1494.01	0.175627
1495.2	0.158214
1496.38	0.147542
1497.57	0.135903
1498.75	0.123247
1499.94	0.112064
1501.12	0.102505
1502.31	0.09691
1503.49	0.0859472
1504.68	0.0725578
1505.86	0.0697944
1507.05	0.0670731
1508.23	0.0638666
1509.42	0.0632139
1510.6	0.0616928
1511.79	0.0595746
1512.97	0.0510388
1514.16	0.0486137
1515.34	0.0490264
1516.53	0.0495975
1517.71	0.0479029
1518.9	0.0428362
1520.08	0.040672
1521.27	0.0408088
1522.45	0.035678
1523.64	0.0297527
1524.82	0.0294377
1526.01	0.025297
1527.19	0.0245887
1528.38	0.0263118
1529.56	0.0320063
1530.75	0.0301224
1531.93	0.0312117
1533.12	0.0328517
1534.3	0.0331733
1535.49	0.0335818
1536.67	0.0356406
1537.86	0.0392677
1539.04	0.04123
1540.23	0.0390717
1541.41	0.0350153
1542.6	0.0360531
1543.78	0.0342736
1544.97	0.032171
1546.15	0.0293782
1547.34	0.0292617
1548.52	0.0285297
1549.71	0.0270423
1550.89	0.0247005
1552.08	0.0259621
1553.26	0.0221712
1554.45	0.0187197
1555.63	0.0170384
1556.82	0.019273
1558	0.0199593
1559.19	0.0171168
1560.37	0.0166713
1561.56	0.0150081
1562.74	0.0134598
1563.93	0.0143149
1565.11	0.0118606
1566.3	0.00858573
1567.48	0.007066
1568.67	0.00201242
1569.85	0.000648494
1571.04	0.000292826
1572.22	0.000741302
1573.41	0.000797035
1574.59	0.00199899
1575.78	0.00296926
1576.96	0.00299477
1578.15	0.00473658
1579.33	0.00521262
1580.52	0.00255182
1581.7	0.00284618
1582.89	0.00157965
1584.07	0.00203757
1585.26	0.00232673
1586.44	0.00362022
1587.63	0.0032693
1588.81	0.00128741
1590	-0.00182238
1591.18	-0.00407131
1592.37	-0.00441125
1593.55	-0.00491843
1594.74	-0.00613287
1595.92	-0.00722301
1597.11	-0.00495821
1598.29	-0.00530527
1599.48	-0.00261879
1600.66	-0.000310182
1601.85	0.00125136
1603.03	0.00234323
1604.22	0.00290886
1605.4	0.00475824
1606.59	0.00826418
1607.77	0.0103608
1608.96	0.0106025
1610.14	0.0103278
1611.33	0.00795862
1612.51	0.00694035
1613.7	0.00664354
1614.88	0.0071544
1616.07	0.00558289
1617.25	0.00410875
1618.44	0.0031131
1619.62	0.00294167
1620.81	0.00344629
1621.99	0.00195451
1623.18	0.000256751
1624.36	-0.00193077
1625.55	-0.00167248
1626.73	-0.00302466
1627.92	-0.000339025
1629.1	0.0029992
1630.29	-0.0021644
1631.47	-0.000888444
1632.66	-0.000148832
1633.84	0.00260965
1635.03	0.00372707
1636.21	0.00445354
1637.4	0.00806628
1638.58	0.0131975
1639.77	0.0159651
1640.95	0.0201492
1642.14	0.0250508
1643.32	0.0306074
1644.51	0.0303368
1645.69	0.0319037
1646.88	0.037112
1648.06	0.040915
1649.25	0.0437015
1650.43	0.0452605
1651.62	0.0464955
1652.8	0.043719
1653.99	0.0442839
1655.17	0.042548
1656.36	0.0466414
1657.54	0.0517116
1658.73	0.0538224
1659.91	0.0537884
1661.1	0.0572349
1662.28	0.0622358
1663.47	0.0635298
1664.65	0.0625665
1665.84	0.06482
1667.02	0.0670199
1668.21	0.0652594
1669.39	0.0743939
1670.58	0.0749807
1671.76	0.0791121
1672.95	0.0829728
1674.13	0.086191
1675.32	0.0858627
1676.5	0.08795
1677.69	0.0892724
1678.87	0.0919164
1680.06	0.0954021
1681.24	0.0945148
1682.43	0.0911551
1683.61	0.0941172
1684.8	0.0986286
1685.98	0.0988376
1687.17	0.0999441
1688.35	0.0991696
1689.54	0.0966041
1690.72	0.0911828
1691.91	0.0887236
1693.09	0.0853447
1694.28	0.08265
1695.46	0.0795575
1696.65	0.0783357
1697.83	0.0810125
1699.02	0.0793149
1700.2	0.0716394
1701.39	0.0687281
1702.57	0.0636977
1703.76	0.0611133
1704.94	0.0535373
1706.13	0.0466593
1707.31	0.0419167
1708.5	0.0410155
1709.68	0.0395686
1710.87	0.0390772
1712.05	0.0333986
1713.24	0.0305921
1714.42	0.0279259
1715.61	0.0264357
1716.79	0.0251555
1717.98	0.026278
1719.16	0.0255443
1720.35	0.0281821
1721.53	0.0313437
1722.72	0.0304074
1723.9	0.0307809
1725.09	0.0281326
1726.27	0.0268944
1727.46	0.0232882
1728.64	0.0252695
1729.83	0.0235407
1731.01	0.0243728
1732.2	0.0262547
1733.38	0.0247716
1734.57	0.0216082
1735.75	0.0209331
1736.94	0.0215148
1738.12	0.0251429
1739.31	0.0285011
1740.49	0.027103
1741.68	0.0298522
1742.86	0.0332834
1744.05	0.0370436
1745.23	0.0356445
1746.42	0.0348664
1747.6	0.0334062
1748.79	0.0345738
1749.97	0.0373025
1751.16	0.0400776
1752.34	0.0394744
1753.53	0.0364313
1754.71	0.0351943
1755.9	0.0338286
1757.08	0.0338663
1758.27	0.0348261
1759.45	0.0333707
1760.64	0.0321262
1761.82	0.0330001
1763.01	0.0313788
1764.19	0.0301689
1765.38	0.0278059
1766.56	0.0233322
1767.75	0.0223595
1768.93	0.0204677
1770.12	0.0185724
1771.3	0.0150972
1772.49	0.0159283
1773.67	0.0147529
1774.86	0.0121813
1776.04	0.00985644
1777.23	0.00928702
1778.41	0.00770501
1779.6	0.00626139
1780.78	0.00418169
1781.97	0.0058135
1783.15	0.0081114
1784.34	0.00670646
1785.52	0.00610665
1786.71	0.00742706
1787.89	0.00885218
1789.08	0.00639117
1790.26	0.00295775
1791.45	0.00265145
1792.63	-0.000398145
1793.82	-0.00282327
1795	-0.00412012
