405	-0.0105657
406.185	-0.00276504
407.37	0.00927885
408.555	0.0218653
409.74	0.0345733
410.925	0.0477077
412.11	0.0628931
413.295	0.0803282
414.48	0.0979747
415.665	0.115153
416.85	0.132048
418.035	0.152373
419.22	0.168297
420.405	0.184761
421.59	0.19753
422.775	0.212397
423.96	0.228974
425.145	0.242169
426.33	0.252083
427.515	0.263767
428.7	0.273428
429.885	0.279209
431.07	0.281073
432.255	0.280559
433.44	0.277399
434.625	0.271787
435.81	0.264283
436.995	0.254016
438.18	0.242857
439.365	0.233557
440.55	0.222416
441.735	0.210868
442.92	0.197787
444.105	0.186805
445.29	0.173506
446.475	0.156966
447.66	0.139738
448.845	0.125779
450.03	0.11579
451.215	0.105557
452.4	0.092613
453.585	0.0832212
454.77	0.0756408
455.955	0.0696814
457.14	0.0596915
458.325	0.0521388
459.51	0.0470895
460.695	0.0456436
461.88	0.0436074
463.065	0.0386997
464.25	0.0357765
465.435	0.0390336
466.62	0.0432836
467.805	0.0536335
468.99	0.0600218
470.175	0.06779
471.36	0.0844527
472.545	0.0988853
473.73	0.115884
474.915	0.137592
476.1	0.161034
477.285	0.185254
478.47	0.212813
479.655	0.243091
480.84	0.271941
482.025	0.305909
483.21	0.340436
484.395	0.371814
485.58	0.405985
486.765	0.440009
487.95	0.472477
489.135	0.503224
490.32	0.530221
491.505	0.554269
492.69	0.579
493.875	0.596507
495.06	0.610358
496.245	0.625275
497.43	0.63446
498.615	0.640173
499.8	0.636763
500.985	0.629405
502.17	0.620578
503.355	0.60913
504.54	0.593353
505.725	0.572924
506.91	0.55009
508.095	0.527923
509.28	0.501027
510.465	0.474076
511.65	0.446659
512.835	0.420869
514.02	0.390792
515.205	0.362651
516.39	0.333342
517.575	0.303513
518.76	0.279274
519.945	0.259782
521.13	0.2383
522.315	0.21465
523.5	0.195007
524.685	0.179813
525.87	0.165602
527.055	0.153238
528.24	0.142613
529.424	0.132722
530.61	0.123197
531.795	0.113595
532.98	0.106329
534.165	0.103207
535.35	0.101538
536.535	0.104681
537.72	0.101095
538.905	0.0997247
540.09	0.0992117
541.275	0.0996769
542.46	0.10002
543.645	0.0993757
544.83	0.101794
546.014	0.105455
547.199	0.108352
548.384	0.112376
549.569	0.116599
550.754	0.117655
551.939	0.121331
553.124	0.11943
554.309	0.122091
555.494	0.122073
556.679	0.122643
557.864	0.123569
559.049	0.124711
560.234	0.125082
561.419	0.126434
562.604	0.129747
563.789	0.129709
564.974	0.122489
566.159	0.118065
567.344	0.117179
568.529	0.110488
569.714	0.106538
570.899	0.104093
572.084	0.104296
573.269	0.0988123
574.454	0.0935993
575.639	0.091728
576.824	0.0900429
578.009	0.0856187
579.194	0.0814343
580.379	0.0796207
581.564	0.0727408
582.749	0.0663973
583.934	0.062082
585.119	0.0605406
586.304	0.0569873
587.489	0.0532865
588.674	0.050963
589.859	0.0487654
591.044	0.0433564
592.229	0.0402192
593.414	0.0399114
594.599	0.0370429
595.784	0.0315541
596.969	0.0276227
598.154	0.02687
599.339	0.0226796
600.524	0.0228328
601.709	0.0219191
602.894	0.0238673
604.079	0.0225456
605.264	0.0212159
606.449	0.0231784
607.634	0.0263199
608.819	0.0259392
610.004	0.0254585
611.189	0.0266452
612.374	0.0243616
613.559	0.0207432
614.744	0.0174809
615.929	0.0168758
617.114	0.0163693
618.299	0.0192799
619.484	0.0224642
620.669	0.0263122
621.854	0.0275291
623.039	0.0284629
624.224	0.0268887
625.409	0.0251814
626.594	0.0239508
627.779	0.0236179
628.964	0.0251399
630.149	0.0257799
631.334	0.0275537
632.519	0.0313349
633.704	0.0371114
634.889	0.0410959
636.074	0.0407793
637.259	0.0391398
638.444	0.0377004
639.629	0.0341455
640.814	0.0325352
641.999	0.0314716
643.184	0.0364196
644.369	0.0436193
645.554	0.0474326
646.739	0.0509083
647.924	0.0528381
649.109	0.0544103
650.294	0.0532419
651.479	0.0552063
652.664	0.0567856
653.849	0.0597809
655.034	0.0625082
656.219	0.0678121
657.404	0.0719255
658.589	0.0775373
659.774	0.0833809
660.959	0.0892263
662.144	0.0906482
663.329	0.0900936
664.514	0.0937777
665.699	0.0988233
666.884	0.10545
668.069	0.112772
669.254	0.121939
670.439	0.132775
671.624	0.143624
672.809	0.151959
673.994	0.160448
675.179	0.16772
676.364	0.17426
677.549	0.183172
678.734	0.188682
679.919	0.193099
681.104	0.198972
682.289	0.202805
683.474	0.203425
684.659	0.202544
685.844	0.20006
687.029	0.199794
688.214	0.195787
689.399	0.184056
690.584	0.176116
691.769	0.167828
692.954	0.161193
694.139	0.15281
695.324	0.143976
696.509	0.131296
697.694	0.12157
698.879	0.113553
700.064	0.10385
701.249	0.0946067
702.434	0.08652
703.619	0.079334
704.804	0.0737079
705.989	0.0643859
707.174	0.0579392
708.359	0.0541872
709.544	0.0490602
710.729	0.0438602
711.914	0.0427609
713.099	0.0392332
714.284	0.0390647
715.469	0.0358665
716.654	0.0341857
717.839	0.0311737
719.024	0.028528
720.209	0.02686
721.394	0.025781
722.579	0.0236827
723.764	0.0215245
724.949	0.0221046
726.134	0.0227117
727.319	0.0235113
728.504	0.021786
729.689	0.0205704
730.874	0.0157102
732.059	0.0162205
733.244	0.0135824
734.429	0.0171589
735.614	0.0184455
736.799	0.0192618
737.984	0.0217249
739.169	0.0227689
740.354	0.0249774
741.539	0.0278956
742.724	0.0287556
743.909	0.0281301
745.094	0.0269468
746.279	0.0262744
747.464	0.0281458
748.649	0.0304807
749.834	0.0335998
751.019	0.0340865
752.204	0.034846
753.389	0.0331464
754.574	0.0294672
755.759	0.0284614
756.944	0.0280538
758.129	0.0273092
759.314	0.0250371
760.499	0.0230908
761.684	0.0243174
762.869	0.0272293
764.054	0.0307942
765.239	0.0312069
766.424	0.0292488
767.609	0.0279327
768.794	0.0278332
769.979	0.0283285
771.164	0.0274501
772.349	0.0275727
773.534	0.0292653
774.719	0.0310272
775.904	0.0316414
777.089	0.0351432
778.274	0.0364137
779.459	0.0407192
780.644	0.0417931
781.829	0.0456774
783.014	0.0482188
784.199	0.0535295
785.384	0.0579588
786.569	0.0595359
787.754	0.0603621
788.939	0.0617254
790.124	0.0647281
791.309	0.0680519
792.494	0.0715414
793.679	0.0747675
794.864	0.0761116
796.049	0.0789778
797.234	0.0829198
798.419	0.0858025
799.604	0.0875578
800.789	0.0901441
801.974	0.0962584
803.159	0.105236
804.344	0.11738
805.529	0.131163
806.714	0.143527
807.898	0.16094
809.083	0.176963
810.268	0.19588
811.454	0.213625
812.639	0.235146
813.824	0.257371
815.009	0.279862
816.194	0.301066
817.379	0.324902
818.564	0.350466
819.749	0.372972
820.934	0.392642
822.119	0.409282
823.304	0.425816
824.489	0.441888
825.673	0.457486
826.858	0.467818
828.043	0.478375
829.228	0.48885
830.413	0.500991
831.598	0.512388
832.783	0.523574
833.968	0.535193
835.153	0.551738
836.338	0.562487
837.523	0.576873
838.708	0.594696
839.893	0.616984
841.078	0.641075
842.263	0.666539
843.448	0.69249
844.633	0.721396
845.818	0.752463
847.003	0.7844
848.188	0.814806
849.373	0.840359
850.558	0.863438
851.743	0.886066
852.928	0.905816
854.113	0.922891
855.298	0.937533
856.483	0.946543
857.668	0.948225
858.853	0.943686
860.038	0.936629
861.223	0.924127
862.408	0.907357
863.593	0.886308
864.778	0.865444
865.963	0.838706
867.148	0.807268
868.333	0.778241
869.518	0.745119
870.703	0.712988
871.888	0.675815
873.073	0.63697
874.258	0.597928
875.443	0.560899
876.628	0.526633
877.813	0.490639
878.998	0.456022
880.183	0.424499
881.368	0.3937
882.553	0.363428
883.738	0.332815
884.923	0.305762
886.108	0.283361
887.293	0.260788
888.478	0.242008
889.663	0.223061
890.848	0.211628
892.033	0.203244
893.218	0.196065
894.403	0.190149
895.588	0.189217
896.773	0.191011
897.958	0.192985
899.143	0.201121
900.328	0.206989
901.513	0.21395
902.698	0.224688
903.883	0.235782
905.068	0.25
906.253	0.260086
907.438	0.272143
908.623	0.286181
909.808	0.299345
910.993	0.311962
912.178	0.326875
913.363	0.338467
914.548	0.34858
915.733	0.359066
916.918	0.368355
918.103	0.379105
919.288	0.392684
920.473	0.405517
921.658	0.412563
922.843	0.415189
924.028	0.419593
925.213	0.422857
926.398	0.423245
927.583	0.421817
928.768	0.418407
929.953	0.413968
931.138	0.406313
932.323	0.39693
933.508	0.384724
934.693	0.372825
935.878	0.358665
937.063	0.338804
938.248	0.317957
939.433	0.296224
940.618	0.281153
941.803	0.262483
942.988	0.247266
944.173	0.231956
945.358	0.214167
946.543	0.197582
947.728	0.182643
948.913	0.16806
950.098	0.156828
951.283	0.148089
952.468	0.139207
953.653	0.13332
954.838	0.130508
956.023	0.128707
957.208	0.129736
958.393	0.130872
959.578	0.133007
960.763	0.134925
961.948	0.137019
963.133	0.141979
964.318	0.148426
965.503	0.154673
966.688	0.160088
967.873	0.166041
969.058	0.174929
970.243	0.184871
971.428	0.193423
972.613	0.200814
973.798	0.207319
974.983	0.212562
976.168	0.218943
977.353	0.224646
978.538	0.225857
979.723	0.231301
980.908	0.23341
982.093	0.231682
983.278	0.230952
984.463	0.230526
985.648	0.228573
986.833	0.227494
988.018	0.22366
989.203	0.21952
990.388	0.211306
991.573	0.20692
992.758	0.204925
993.943	0.1973
995.128	0.190193
996.313	0.189271
997.498	0.184313
998.683	0.182443
999.868	0.182653
1001.05	0.184053
1002.24	0.181251
1003.42	0.183128
1004.61	0.18348
1005.79	0.184399
1006.98	0.181735
1008.16	0.184371
1009.35	0.184705
1010.53	0.183894
1011.72	0.18874
1012.9	0.194139
1014.09	0.197405
1015.27	0.203053
1016.46	0.207744
1017.64	0.215565
1018.83	0.222918
1020.01	0.231434
1021.2	0.243174
1022.38	0.254146
1023.57	0.264558
1024.75	0.280242
1025.94	0.297104
1027.12	0.315893
1028.31	0.336436
1029.49	0.354832
1030.68	0.373742
1031.86	0.395023
1033.05	0.416497
1034.23	0.438775
1035.42	0.462027
1036.6	0.486692
1037.79	0.514296
1038.97	0.541493
1040.16	0.56789
1041.34	0.594954
1042.53	0.620715
1043.71	0.645982
1044.9	0.670627
1046.08	0.694723
1047.27	0.717672
1048.45	0.736787
1049.64	0.754476
1050.82	0.770777
1052.01	0.781988
1053.19	0.790634
1054.38	0.795821
1055.56	0.799757
1056.75	0.801327
1057.93	0.79835
1059.12	0.794356
1060.3	0.790262
1061.49	0.781979
1062.67	0.771884
1063.86	0.759165
1065.04	0.742271
1066.23	0.726679
1067.41	0.715067
1068.6	0.70069
1069.78	0.688726
1070.97	0.676487
1072.15	0.664872
1073.34	0.650616
1074.52	0.636912
1075.71	0.624644
1076.89	0.615097
1078.08	0.602722
1079.26	0.59196
1080.45	0.58104
1081.63	0.569535
1082.82	0.562957
1084	0.557296
1085.19	0.547056
1086.37	0.537594
1087.56	0.530983
1088.74	0.522367
1089.93	0.513457
1091.11	0.507582
1092.3	0.500062
1093.48	0.495822
1094.67	0.490605
1095.85	0.484204
1097.04	0.479423
1098.22	0.477868
1099.41	0.476059
1100.59	0.474198
1101.78	0.471957
1102.96	0.4683
1104.15	0.467654
1105.33	0.462308
1106.52	0.460928
1107.7	0.458634
1108.89	0.458004
1110.07	0.455527
1111.26	0.452344
1112.44	0.446185
1113.63	0.440328
1114.81	0.435185
1116	0.425119
1117.18	0.415556
1118.37	0.405637
1119.55	0.396279
1120.74	0.387419
1121.92	0.374269
1123.11	0.360307
1124.29	0.34394
1125.48	0.330812
1126.66	0.313288
1127.85	0.295226
1129.03	0.272873
1130.22	0.252914
1131.4	0.2343
1132.59	0.215927
1133.77	0.197741
1134.96	0.180631
1136.14	0.161772
1137.33	0.144842
1138.51	0.126026
1139.7	0.112187
1140.88	0.0994001
1142.07	0.0870626
1143.25	0.0723257
1144.44	0.0638691
1145.62	0.056963
1146.81	0.0527332
1147.99	0.0472406
1149.18	0.0423485
1150.36	0.0384394
1151.55	0.0349801
1152.73	0.0307141
1153.92	0.0294965
1155.1	0.026094
1156.29	0.0238041
1157.47	0.0238219
1158.66	0.0254637
1159.84	0.0266283
1161.03	0.0281981
1162.21	0.0275522
1163.4	0.0239177
1164.58	0.0212105
1165.77	0.0204966
1166.95	0.021293
1168.14	0.0191499
1169.32	0.019508
1170.51	0.0206987
1171.69	0.0201687
1172.88	0.020398
1174.06	0.0226285
1175.25	0.0210071
1176.43	0.0206054
1177.62	0.0204118
1178.8	0.0221241
1179.99	0.0241637
1181.17	0.0259494
1182.36	0.0250517
1183.54	0.0256344
1184.73	0.028243
1185.91	0.0303575
1187.1	0.0332071
1188.28	0.0371544
1189.47	0.0416121
1190.65	0.0473333
1191.84	0.0522649
1193.02	0.0561262
1194.21	0.0581262
1195.39	0.0609499
1196.58	0.064299
1197.76	0.0686356
1198.95	0.075529
1200.13	0.0820147
1201.32	0.0839719
1202.5	0.0854887
1203.69	0.0885417
1204.87	0.0909437
1206.06	0.0922658
1207.24	0.0915185
1208.43	0.0897096
1209.61	0.0877397
1210.8	0.0895793
1211.98	0.0919744
1213.17	0.0903734
1214.35	0.0877229
1215.54	0.086768
1216.72	0.0837092
1217.91	0.0849349
1219.09	0.0886793
1220.28	0.0903613
1221.46	0.0889548
1222.65	0.0864813
1223.83	0.0857181
1225.02	0.0912497
1226.2	0.0958946
1227.39	0.0993655
1228.57	0.102817
1229.76	0.105957
1230.94	0.110406
1232.13	0.113923
1233.31	0.117484
1234.5	0.122997
1235.68	0.125462
1236.87	0.132178
1238.05	0.137052
1239.24	0.144798
1240.42	0.149675
1241.61	0.157268
1242.79	0.156997
1243.98	0.161639
1245.16	0.167448
1246.35	0.168401
1247.53	0.174224
1248.72	0.18051
1249.9	0.183735
1251.09	0.187255
1252.27	0.19253
1253.46	0.194714
1254.64	0.194161
1255.83	0.194945
1257.01	0.194904
1258.2	0.196076
1259.38	0.197194
1260.57	0.196005
1261.75	0.193742
1262.94	0.19254
1264.12	0.191775
1265.31	0.187746
1266.49	0.186172
1267.68	0.184155
1268.86	0.181907
1270.05	0.180315
1271.23	0.177875
1272.42	0.176524
1273.6	0.177227
1274.79	0.178459
1275.97	0.174293
1277.16	0.171492
1278.34	0.17097
1279.53	0.168902
1280.71	0.165723
1281.9	0.164221
1283.08	0.164466
1284.27	0.161764
1285.45	0.161792
1286.64	0.156964
1287.82	0.156997
1289.01	0.157051
1290.19	0.152526
1291.38	0.148508
1292.56	0.145585
1293.75	0.145858
1294.93	0.148376
1296.12	0.146631
1297.3	0.150107
1298.49	0.151685
1299.67	0.154045
1300.86	0.153727
1302.04	0.15231
1303.23	0.153315
1304.41	0.154516
1305.6	0.156368
1306.78	0.158726
1307.97	0.162315
1309.15	0.165116
1310.34	0.166298
1311.52	0.168066
1312.71	0.17096
1313.89	0.1723
1315.08	0.174091
1316.26	0.175315
1317.45	0.176237
1318.63	0.17979
1319.82	0.18135
1321	0.182962
1322.19	0.182814
1323.37	0.180403
1324.56	0.180291
1325.74	0.179154
1326.93	0.180077
1328.11	0.177439
1329.3	0.172575
1330.48	0.16899
1331.67	0.167481
1332.85	0.164027
1334.04	0.161798
1335.22	0.161654
1336.41	0.160272
1337.59	0.159854
1338.78	0.156407
1339.96	0.154368
1341.15	0.1546
1342.33	0.155518
1343.52	0.158147
1344.7	0.161058
1345.89	0.163763
1347.07	0.165753
1348.26	0.168785
1349.44	0.171926
1350.63	0.17353
1351.81	0.170937
1353	0.169283
1354.18	0.167951
1355.37	0.167359
1356.55	0.168484
1357.74	0.168017
1358.92	0.167343
1360.11	0.164027
1361.29	0.162687
1362.48	0.163662
1363.66	0.165036
1364.85	0.16559
1366.03	0.162211
1367.22	0.158146
1368.4	0.157292
1369.59	0.15539
1370.77	0.155347
1371.96	0.156493
1373.14	0.158728
1374.33	0.160071
1375.51	0.160406
1376.7	0.158199
1377.88	0.157094
1379.07	0.156015
1380.25	0.15528
1381.44	0.152943
1382.62	0.151521
1383.81	0.151499
1384.99	0.152788
1386.18	0.157024
1387.36	0.157519
1388.55	0.155091
1389.73	0.154595
1390.92	0.156215
1392.1	0.156545
1393.29	0.158186
1394.47	0.155765
1395.66	0.153347
1396.84	0.151157
1398.03	0.150697
1399.21	0.150944
1400.4	0.151508
1401.58	0.151867
1402.77	0.150428
1403.95	0.147648
1405.14	0.148641
1406.32	0.151085
1407.51	0.149793
1408.69	0.148515
1409.88	0.149178
1411.06	0.15155
1412.25	0.15456
1413.43	0.154842
1414.62	0.156401
1415.8	0.159253
1416.99	0.158394
1418.17	0.15826
1419.36	0.155897
1420.54	0.159059
1421.73	0.158408
1422.91	0.155761
1424.1	0.153994
1425.28	0.15449
1426.47	0.151195
1427.65	0.149553
1428.84	0.146846
1430.02	0.144564
1431.21	0.1425
1432.39	0.140539
1433.58	0.140689
1434.76	0.142689
1435.95	0.144839
1437.13	0.146322
1438.32	0.15081
1439.5	0.156807
1440.69	0.163982
1441.87	0.168437
1443.06	0.17665
1444.24	0.186593
1445.43	0.198967
1446.61	0.212775
1447.8	0.227042
1448.98	0.242497
1450.17	0.259456
1451.35	0.274836
1452.54	0.290666
1453.72	0.307923
1454.91	0.32555
1456.09	0.341807
1457.28	0.358794
1458.46	0.377485
1459.65	0.396088
1460.83	0.411891
1462.02	0.427557
1463.2	0.440449
1464.39	0.45167
1465.57	0.45741
1466.76	0.463824
1467.94	0.470167
1469.13	0.471858
1470.31	0.473265
1471.5	0.472372
1472.68	0.467245
1473.87	0.461997
1475.05	0.451337
1476.24	0.438185
1477.42	0.423966
1478.61	0.407236
1479.79	0.387779
1480.98	0.36812
1482.16	0.349853
1483.35	0.32979
1484.53	0.306469
1485.72	0.284238
1486.9	0.263862
1488.09	0.240658
1489.27	0.221605
1490.46	0.199817
1491.64	0.181625
1492.83	0.164756
1494.01	0.147761
1495.2	0.133971
1496.38	0.121718
1497.57	0.113274
1498.75	0.104775
1499.94	0.0959584
1501.12	0.0896929
1502.31	0.0850864
1503.49	0.0822704
1504.68	0.0800964
1505.86	0.0759588
1507.05	0.0743378
1508.23	0.0712759
1509.42	0.0720249
1510.6	0.0734629
1511.79	0.0733716
1512.97	0.0720839
1514.16	0.0679039
1515.34	0.0649797
1516.53	0.0657485
1517.71	0.0632205
1518.9	0.0623665
1520.08	0.0604634
1521.27	0.0565124
1522.45	0.057037
1523.64	0.0580789
1524.82	0.0579949
1526.01	0.0560568
1527.19	0.0523275
1528.38	0.0516278
1529.56	0.0513665
1530.75	0.0515972
1531.93	0.0529238
1533.12	0.0507235
1534.3	0.0507816
1535.49	0.0508567
1536.67	0.0499464
1537.86	0.0495845
1539.04	0.0476959
1540.23	0.0453792
1541.41	0.0442951
1542.6	0.0424307
1543.78	0.0419106
1544.97	0.0403465
1546.15	0.0378607
1547.34	0.0390822
1548.52	0.0388209
1549.71	0.0375827
1550.89	0.0377811
1552.08	0.0377075
1553.26	0.0379807
1554.45	0.0394533
1555.63	0.0391552
1556.82	0.0382098
1558	0.0374352
1559.19	0.0373003
1560.37	0.0370454
1561.56	0.0371522
1562.74	0.0380737
1563.93	0.0362023
1565.11	0.0353394
1566.3	0.0353343
1567.48	0.0347269
1568.67	0.0342797
1569.85	0.0328649
1571.04	0.0308625
1572.22	0.0308068
1573.41	0.0306644
1574.59	0.0306891
1575.78	0.0293912
1576.96	0.028738
1578.15	0.0285306
1579.33	0.0264691
1580.52	0.0275914
1581.7	0.0274822
1582.89	0.0270732
1584.07	0.0249778
1585.26	0.0244015
1586.44	0.0240744
1587.63	0.0244643
1588.81	0.024637
1590	0.02457
1591.18	0.0247597
1592.37	0.0264557
1593.55	0.0264711
1594.74	0.0251874
1595.92	0.0276432
1597.11	0.025725
1598.29	0.0241598
1599.48	0.0260511
1600.66	0.027545
1601.85	0.0272659
1603.03	0.0268569
1604.22	0.0271221
1605.4	0.0285097
1606.59	0.0293187
1607.77	0.0285278
1608.96	0.0278068
1610.14	0.0281237
1611.33	0.0286662
1612.51	0.0273437
1613.7	0.0295431
1614.88	0.0310441
1616.07	0.0300003
1617.25	0.0298186
1618.44	0.0299358
1619.62	0.029914
1620.81	0.0283199
1621.99	0.0255891
1623.18	0.0242994
1624.36	0.0236215
1625.55	0.02342
1626.73	0.0223938
1627.92	0.0207476
1629.1	0.0205201
1630.29	0.0182713
1631.47	0.017224
1632.66	0.0175311
1633.84	0.016056
1635.03	0.0159931
1636.21	0.0178531
1637.4	0.0197429
1638.58	0.0222859
1639.77	0.0238068
1640.95	0.0236459
1642.14	0.0238423
1643.32	0.0255669
1644.51	0.0265298
1645.69	0.028535
1646.88	0.0300014
1648.06	0.0307667
1649.25	0.0308424
1650.43	0.0324499
1651.62	0.0325606
1652.8	0.0324475
1653.99	0.0321161
1655.17	0.0303861
1656.36	0.0293475
1657.54	0.0309921
1658.73	0.0330563
1659.91	0.0341437
1661.1	0.0358017
1662.28	0.0354385
1663.47	0.0357605
1664.65	0.0382602
1665.84	0.0397074
1667.02	0.0406342
1668.21	0.0417982
1669.39	0.0418384
1670.58	0.0426296
1671.76	0.0440734
1672.95	0.0450729
1674.13	0.0443844
1675.32	0.0420574
1676.5	0.0415481
1677.69	0.0404129
1678.87	0.0408041
1680.06	0.039987
1681.24	0.039054
1682.43	0.0390018
1683.61	0.0404436
1684.8	0.0400485
1685.98	0.0397481
1687.17	0.0400045
1688.35	0.0384068
1689.54	0.0374954
1690.72	0.0374353
1691.91	0.0371139
1693.09	0.0382662
1694.28	0.0384679
1695.46	0.0383636
1696.65	0.0391139
1697.83	0.0392482
1699.02	0.0376785
1700.2	0.0342583
1701.39	0.0342106
1702.57	0.034954
1703.76	0.0340852
1704.94	0.0340022
1706.13	0.0356066
1707.31	0.0376276
1708.5	0.036522
1709.68	0.0338755
1710.87	0.0344153
1712.05	0.0343534
1713.24	0.0345854
1714.42	0.032966
1715.61	0.0325632
1716.79	0.035025
1717.98	0.0351238
1719.16	0.0348499
1720.35	0.0367773
1721.53	0.038611
1722.72	0.0367563
1723.9	0.0375934
1725.09	0.0415065
1726.27	0.043661
1727.46	0.0420417
1728.64	0.0418212
1729.83	0.0401895
1731.01	0.0403384
1732.2	0.0400795
1733.38	0.0388195
1734.57	0.0402349
1735.75	0.0403689
1736.94	0.039008
1738.12	0.0370867
1739.31	0.0384033
1740.49	0.0369886
1741.68	0.0343642
1742.86	0.0346542
1744.05	0.0356621
1745.23	0.0361565
1746.42	0.0373708
1747.6	0.0386248
1748.79	0.0394288
1749.97	0.0389341
1751.16	0.0365339
1752.34	0.0363005
1753.53	0.0354058
1754.71	0.0359056
1755.9	0.0351971
1757.08	0.0358437
1758.27	0.0375043
1759.45	0.0365053
1760.64	0.0356277
1761.82	0.0342927
1763.01	0.0340005
1764.19	0.0340621
1765.38	0.033755
1766.56	0.0343315
1767.75	0.0323132
1768.93	0.0334799
1770.12	0.0333883
1771.3	0.0334385
1772.49	0.0320857
1773.67	0.029797
1774.86	0.0286974
1776.04	0.0277268
1777.23	0.0270151
1778.41	0.0269712
1779.6	0.0251848
1780.78	0.0239276
1781.97	0.0214545
1783.15	0.0216197
1784.34	0.0225594
1785.52	0.0211418
1786.71	0.0209054
1787.89	0.0218085
1789.08	0.0217702
1790.26	0.0214869
1791.45	0.0204829
1792.63	0.0214364
1793.82	0.0218258
1795	0.0219866
