405	0.262632
406.185	0.260762
407.37	0.257684
408.555	0.257192
409.74	0.259248
410.925	0.263721
412.11	0.269021
413.295	0.273146
414.48	0.277267
415.665	0.284779
416.85	0.28745
418.035	0.290474
419.22	0.298034
420.405	0.304862
421.59	0.309664
422.775	0.312807
423.96	0.314156
425.145	0.314554
426.33	0.314689
427.515	0.312772
428.7	0.308345
429.885	0.308157
431.07	0.29926
432.255	0.292914
433.44	0.288635
434.625	0.277933
435.81	0.262317
436.995	0.248801
438.18	0.237722
439.365	0.223179
440.55	0.205911
441.735	0.191035
442.92	0.174488
444.105	0.15884
445.29	0.146024
446.475	0.133113
447.66	0.119217
448.845	0.102461
450.03	0.084916
451.215	0.0702339
452.4	0.0562325
453.585	0.0376338
454.77	0.0263175
455.955	0.0272885
457.14	0.0185426
458.325	0.00999507
459.51	0.0075993
460.695	0.00540467
461.88	0.00106641
463.065	-0.00033627
464.25	0.00276949
465.435	0.00538757
466.62	0.00874935
467.805	0.0132206
468.99	0.025532
470.175	0.0393463
471.36	0.0540665
472.545	0.0716241
473.73	0.0923187
474.915	0.110859
476.1	0.128419
477.285	0.15108
478.47	0.178268
479.655	0.204517
480.84	0.239327
482.025	0.274762
483.21	0.304862
484.395	0.335987
485.58	0.367917
486.765	0.4018
487.95	0.432064
489.135	0.459186
490.32	0.484446
491.505	0.506691
492.69	0.526779
493.875	0.542828
495.06	0.558788
496.245	0.571217
497.43	0.580194
498.615	0.587823
499.8	0.58298
500.985	0.577359
502.17	0.57074
503.355	0.55843
504.54	0.541195
505.725	0.521936
506.91	0.500511
508.095	0.474743
509.28	0.44955
510.465	0.427274
511.65	0.401116
512.835	0.373814
514.02	0.343943
515.205	0.313995
516.39	0.282401
517.575	0.249494
518.76	0.220212
519.945	0.195707
521.13	0.169234
522.315	0.141871
523.5	0.121038
524.685	0.106335
525.87	0.0894587
527.055	0.0746319
528.24	0.0635938
529.424	0.0490286
530.61	0.0384334
531.795	0.0312698
532.98	0.0229384
534.165	0.0161034
535.35	0.0115729
536.535	0.0109527
537.72	0.00801405
538.905	0.00922743
540.09	0.00719021
541.275	0.00939814
542.46	0.0130456
543.645	0.0123332
544.83	0.00905834
546.014	0.00873357
547.199	0.0112805
548.384	0.0131918
549.569	0.0143059
550.754	0.0162219
551.939	0.0237123
553.124	0.0283618
554.309	0.0345459
555.494	0.0359818
556.679	0.0438024
557.864	0.0453494
559.049	0.046079
560.234	0.047802
561.419	0.0512232
562.604	0.055577
563.789	0.0599807
564.974	0.0645137
566.159	0.0631844
567.344	0.0659525
568.529	0.0687568
569.714	0.0671534
570.899	0.062763
572.084	0.0628538
573.269	0.0633749
574.454	0.0620159
575.639	0.0557725
576.824	0.0497203
578.009	0.046774
579.194	0.0452019
580.379	0.0447512
581.564	0.0409482
582.749	0.0382842
583.934	0.0354993
585.119	0.0367442
586.304	0.0339185
587.489	0.0319445
588.674	0.0316673
589.859	0.0300277
591.044	0.0255563
592.229	0.0212942
593.414	0.0211818
594.599	0.0246098
595.784	0.0272507
596.969	0.0275755
598.154	0.0278248
599.339	0.0254414
600.524	0.0183351
601.709	0.0224346
602.894	0.0184262
604.079	0.0169314
605.264	0.0177107
606.449	0.0186433
607.634	0.0187405
608.819	0.0185924
610.004	0.0197807
611.189	0.0208432
612.374	0.0183448
613.559	0.0138898
614.744	0.0116055
615.929	0.0125303
617.114	0.0121875
618.299	0.00851317
619.484	0.0142058
620.669	0.0117034
621.854	0.0137132
623.039	0.0130483
624.224	0.0111073
625.409	0.00982517
626.594	0.00973446
627.779	0.00950877
628.964	0.00711353
630.149	0.00539598
631.334	0.00888827
632.519	0.0142947
633.704	0.0167545
634.889	0.0159036
636.074	0.0170849
637.259	0.0225031
638.444	0.0238473
639.629	0.0244889
640.814	0.0254449
641.999	0.0304718
643.184	0.0341156
644.369	0.0349352
645.554	0.0348645
646.739	0.0341394
647.924	0.0389644
649.109	0.0484856
650.294	0.0493251
651.479	0.0490016
652.664	0.0526196
653.849	0.0565801
655.034	0.0573976
656.219	0.0636001
657.404	0.0692651
658.589	0.0746265
659.774	0.0775677
660.959	0.0802484
662.144	0.0822145
663.329	0.0857385
664.514	0.0944359
665.699	0.104028
666.884	0.11104
668.069	0.114413
669.254	0.120988
670.439	0.131824
671.624	0.138626
672.809	0.149042
673.994	0.160706
675.179	0.166135
676.364	0.170096
677.549	0.175799
678.734	0.183667
679.919	0.189458
681.104	0.196675
682.289	0.204538
683.474	0.209038
684.659	0.213992
685.844	0.21572
687.029	0.215625
688.214	0.218007
689.399	0.217796
690.584	0.213834
691.769	0.206544
692.954	0.204822
694.139	0.199787
695.324	0.195574
696.509	0.189177
697.694	0.183743
698.879	0.180666
700.064	0.176597
701.249	0.169934
702.434	0.160727
703.619	0.152052
704.804	0.147955
705.989	0.142925
707.174	0.137908
708.359	0.133229
709.544	0.132505
710.729	0.133339
711.914	0.133203
713.099	0.13453
714.284	0.136575
715.469	0.13725
716.654	0.137953
717.839	0.138798
719.024	0.139016
720.209	0.140211
721.394	0.145419
722.579	0.149386
723.764	0.150033
724.949	0.152879
726.134	0.153874
727.319	0.155756
728.504	0.162041
729.689	0.1625
730.874	0.160458
732.059	0.161321
733.244	0.162626
734.429	0.164876
735.614	0.170156
736.799	0.173185
737.984	0.176244
739.169	0.179796
740.354	0.177833
741.539	0.175451
742.724	0.180481
743.909	0.186861
745.094	0.189833
746.279	0.192605
747.464	0.194155
748.649	0.195979
749.834	0.195788
751.019	0.199383
752.204	0.199349
753.389	0.20522
754.574	0.202863
755.759	0.202728
756.944	0.204753
758.129	0.201579
759.314	0.203342
760.499	0.206694
761.684	0.205494
762.869	0.206313
764.054	0.206668
765.239	0.203936
766.424	0.20105
767.609	0.203372
768.794	0.207642
769.979	0.208427
771.164	0.209807
772.349	0.206818
773.534	0.206748
774.719	0.205601
775.904	0.204523
777.089	0.207933
778.274	0.211891
779.459	0.213433
780.644	0.212707
781.829	0.210713
783.014	0.210642
784.199	0.208801
785.384	0.209952
786.569	0.202778
787.754	0.199567
788.939	0.199155
790.124	0.200942
791.309	0.203208
792.494	0.202851
793.679	0.204074
794.864	0.206357
796.049	0.206332
797.234	0.207118
798.419	0.207445
799.604	0.206116
800.789	0.213881
801.974	0.221099
803.159	0.23008
804.344	0.235974
805.529	0.251831
806.714	0.261475
807.898	0.276296
809.083	0.290048
810.268	0.307869
811.454	0.32891
812.639	0.347308
813.824	0.368894
815.009	0.38591
816.194	0.401782
817.379	0.424413
818.564	0.446173
819.749	0.463296
820.934	0.479608
822.119	0.493965
823.304	0.509166
824.489	0.522325
825.673	0.531845
826.858	0.539462
828.043	0.545232
829.228	0.551618
830.413	0.558814
831.598	0.568016
832.783	0.577004
833.968	0.592704
835.153	0.608259
836.338	0.623819
837.523	0.638226
838.708	0.653214
839.893	0.671074
841.078	0.690844
842.263	0.713124
843.448	0.737875
844.633	0.767575
845.818	0.798143
847.003	0.824562
848.188	0.84743
849.373	0.868627
850.558	0.887618
851.743	0.90362
852.928	0.918365
854.113	0.928275
855.298	0.93368
856.483	0.944208
857.668	0.945522
858.853	0.948225
860.038	0.945076
861.223	0.935137
862.408	0.928388
863.593	0.90819
864.778	0.890101
865.963	0.872897
867.148	0.85251
868.333	0.829429
869.518	0.806963
870.703	0.78097
871.888	0.75786
873.073	0.734611
874.258	0.705132
875.443	0.68022
876.628	0.657193
877.813	0.632372
878.998	0.610261
880.183	0.585108
881.368	0.557654
882.553	0.537253
883.738	0.520631
884.923	0.50325
886.108	0.486508
887.293	0.473371
888.478	0.460426
889.663	0.451184
890.848	0.437315
892.033	0.428972
893.218	0.427072
894.403	0.420737
895.588	0.419291
896.773	0.423778
897.958	0.425108
899.143	0.432627
900.328	0.438155
901.513	0.437251
902.698	0.442099
903.883	0.451625
905.068	0.459506
906.253	0.466629
907.438	0.474337
908.623	0.484894
909.808	0.498214
910.993	0.508079
912.178	0.517885
913.363	0.526076
914.548	0.531626
915.733	0.538154
916.918	0.545609
918.103	0.552091
919.288	0.558894
920.473	0.56434
921.658	0.566833
922.843	0.569356
924.028	0.573328
925.213	0.579083
926.398	0.578537
927.583	0.572682
928.768	0.564066
929.953	0.557122
931.138	0.548763
932.323	0.538109
933.508	0.526157
934.693	0.514703
935.878	0.50245
937.063	0.490844
938.248	0.4776
939.433	0.460897
940.618	0.448789
941.803	0.429292
942.988	0.409627
944.173	0.393616
945.358	0.382254
946.543	0.367645
947.728	0.359674
948.913	0.349106
950.098	0.339237
951.283	0.331958
952.468	0.323492
953.653	0.316575
954.838	0.312085
956.023	0.308734
957.208	0.308654
958.393	0.307558
959.578	0.308536
960.763	0.311653
961.948	0.312886
963.133	0.314392
964.318	0.322178
965.503	0.329714
966.688	0.33458
967.873	0.34262
969.058	0.349672
970.243	0.354582
971.428	0.359636
972.613	0.364777
973.798	0.367272
974.983	0.370045
976.168	0.373426
977.353	0.376832
978.538	0.380799
979.723	0.382012
980.908	0.382926
982.093	0.381666
983.278	0.377646
984.463	0.372026
985.648	0.369306
986.833	0.36886
988.018	0.36237
989.203	0.360648
990.388	0.350683
991.573	0.344583
992.758	0.342015
993.943	0.334556
995.128	0.329454
996.313	0.321559
997.498	0.316827
998.683	0.314349
999.868	0.311947
1001.05	0.312014
1002.24	0.313659
1003.42	0.309477
1004.61	0.307387
1005.79	0.309766
1006.98	0.310064
1008.16	0.312327
1009.35	0.312998
1010.53	0.312411
1011.72	0.311837
1012.9	0.314419
1014.09	0.317883
1015.27	0.320885
1016.46	0.325653
1017.64	0.331725
1018.83	0.335868
1020.01	0.340125
1021.2	0.34757
1022.38	0.355761
1023.57	0.365669
1024.75	0.375991
1025.94	0.389711
1027.12	0.408882
1028.31	0.427107
1029.49	0.44517
1030.68	0.462468
1031.86	0.479964
1033.05	0.499726
1034.23	0.518043
1035.42	0.534766
1036.6	0.553601
1037.79	0.575543
1038.97	0.598017
1040.16	0.61869
1041.34	0.637281
1042.53	0.653638
1043.71	0.667859
1044.9	0.680173
1046.08	0.693222
1047.27	0.70829
1048.45	0.720285
1049.64	0.730459
1050.82	0.737155
1052.01	0.74496
1053.19	0.753445
1054.38	0.757295
1055.56	0.756716
1056.75	0.751593
1057.93	0.747889
1059.12	0.743212
1060.3	0.74056
1061.49	0.739746
1062.67	0.732978
1063.86	0.721698
1065.04	0.707778
1066.23	0.697726
1067.41	0.688332
1068.6	0.680124
1069.78	0.666936
1070.97	0.651773
1072.15	0.641751
1073.34	0.625608
1074.52	0.614183
1075.71	0.602659
1076.89	0.590627
1078.08	0.576145
1079.26	0.561714
1080.45	0.548373
1081.63	0.538999
1082.82	0.533419
1084	0.525797
1085.19	0.51504
1086.37	0.507585
1087.56	0.4998
1088.74	0.490827
1089.93	0.481094
1091.11	0.474267
1092.3	0.470201
1093.48	0.46007
1094.67	0.454133
1095.85	0.451066
1097.04	0.445998
1098.22	0.441186
1099.41	0.435835
1100.59	0.42661
1101.78	0.424734
1102.96	0.422843
1104.15	0.414365
1105.33	0.411848
1106.52	0.412217
1107.7	0.408295
1108.89	0.407543
1110.07	0.401145
1111.26	0.398594
1112.44	0.394347
1113.63	0.39027
1114.81	0.38471
1116	0.380238
1117.18	0.374248
1118.37	0.371707
1119.55	0.357524
1120.74	0.342557
1121.92	0.33305
1123.11	0.314614
1124.29	0.297222
1125.48	0.281116
1126.66	0.264819
1127.85	0.248574
1129.03	0.23173
1130.22	0.215621
1131.4	0.197204
1132.59	0.181902
1133.77	0.167685
1134.96	0.149095
1136.14	0.132757
1137.33	0.121398
1138.51	0.110224
1139.7	0.096505
1140.88	0.0888483
1142.07	0.0847754
1143.25	0.077356
1144.44	0.0720657
1145.62	0.0683834
1146.81	0.0616121
1147.99	0.0541252
1149.18	0.048647
1150.36	0.0435788
1151.55	0.0377865
1152.73	0.0356308
1153.92	0.0313079
1155.1	0.028426
1156.29	0.027582
1157.47	0.0264307
1158.66	0.0254462
1159.84	0.0216364
1161.03	0.0208147
1162.21	0.0156481
1163.4	0.0128425
1164.58	0.0148828
1165.77	0.0142872
1166.95	0.0132558
1168.14	0.0121196
1169.32	0.0108464
1170.51	0.00995722
1171.69	0.0107166
1172.88	0.0111181
1174.06	0.0128438
1175.25	0.0101894
1176.43	0.00868254
1177.62	0.00884769
1178.8	0.0110428
1179.99	0.0136063
1181.17	0.011845
1182.36	0.00970376
1183.54	0.00924805
1184.73	0.010252
1185.91	0.0106932
1187.1	0.011699
1188.28	0.0153812
1189.47	0.0301411
1190.65	0.0460021
1191.84	0.0477109
1193.02	0.0515015
1194.21	0.0533618
1195.39	0.0517039
1196.58	0.0492854
1197.76	0.0492714
1198.95	0.0503501
1200.13	0.0519937
1201.32	0.054459
1202.5	0.0548904
1203.69	0.0575597
1204.87	0.0618032
1206.06	0.0583038
1207.24	0.0376777
1208.43	0.0243331
1209.61	0.0226097
1210.8	0.0195783
1211.98	0.0160985
1213.17	0.0165306
1214.35	0.0189963
1215.54	0.0226867
1216.72	0.0270603
1217.91	0.0281068
1219.09	0.0280862
1220.28	0.030456
1221.46	0.0314861
1222.65	0.0269751
1223.83	0.0309916
1225.02	0.0333818
1226.2	0.0358626
1227.39	0.0349335
1228.57	0.0385417
1229.76	0.0398132
1230.94	0.0404721
1232.13	0.0370532
1233.31	0.036808
1234.5	0.0375649
1235.68	0.0392859
1236.87	0.0436456
1238.05	0.044192
1239.24	0.0452936
1240.42	0.051627
1241.61	0.0526031
1242.79	0.0563873
1243.98	0.0591515
1245.16	0.0664802
1246.35	0.0749687
1247.53	0.080529
1248.72	0.0814665
1249.9	0.0873016
1251.09	0.0889
1252.27	0.091139
1253.46	0.0947442
1254.64	0.0939304
1255.83	0.0942476
1257.01	0.0957439
1258.2	0.0939096
1259.38	0.0928981
1260.57	0.0912325
1261.75	0.0896861
1262.94	0.0854934
1264.12	0.0817248
1265.31	0.0825045
1266.49	0.0806034
1267.68	0.0791163
1268.86	0.0763244
1270.05	0.0720951
1271.23	0.0716099
1272.42	0.0733409
1273.6	0.0705279
1274.79	0.0706563
1275.97	0.0740602
1277.16	0.0749672
1278.34	0.0746502
1279.53	0.0738981
1280.71	0.076146
1281.9	0.0730582
1283.08	0.0735578
1284.27	0.0760044
1285.45	0.0717814
1286.64	0.0740421
1287.82	0.0704017
1289.01	0.0693036
1290.19	0.0669559
1291.38	0.0653687
1292.56	0.0630553
1293.75	0.0593263
1294.93	0.0581955
1296.12	0.0594463
1297.3	0.0576913
1298.49	0.055516
1299.67	0.0531351
1300.86	0.0548925
1302.04	0.0563444
1303.23	0.0564317
1304.41	0.0568866
1305.6	0.0558624
1306.78	0.0520056
1307.97	0.052663
1309.15	0.0557293
1310.34	0.0567273
1311.52	0.0559457
1312.71	0.0537669
1313.89	0.0533771
1315.08	0.0531346
1316.26	0.0522811
1317.45	0.0487943
1318.63	0.0440682
1319.82	0.0408884
1321	0.0386071
1322.19	0.0373751
1323.37	0.0381543
1324.56	0.0367015
1325.74	0.028758
1326.93	0.0205593
1328.11	0.0187859
1329.3	0.0177755
1330.48	0.0200715
1331.67	0.0176434
1332.85	0.0119516
1334.04	0.0144355
1335.22	0.0116946
1336.41	0.010676
1337.59	0.0111786
1338.78	0.00890405
1339.96	0.00807883
1341.15	0.00819955
1342.33	0.0123999
1343.52	0.0149077
1344.7	0.0151075
1345.89	0.0127471
1347.07	0.00934487
1348.26	0.00483633
1349.44	0.00583082
1350.63	0.0073233
1351.81	0.00690182
1353	0.00307768
1354.18	0.0038854
1355.37	0.0068493
1356.55	0.00855897
1357.74	0.00688996
1358.92	0.00231909
1360.11	0.00241355
1361.29	0.00198029
1362.48	0.00360728
1363.66	0.00490955
1364.85	0.00538433
1366.03	0.00471744
1367.22	0.00131933
1368.4	0.00244526
1369.59	0.00643603
1370.77	0.00731156
1371.96	0.00175393
1373.14	-0.000379763
1374.33	-0.000722468
1375.51	-0.000323538
1376.7	-0.00257944
1377.88	-0.00269223
1379.07	-0.0028421
1380.25	-0.00586788
1381.44	-0.00863888
1382.62	-0.00900815
1383.81	-0.0070729
1384.99	-0.00653005
1386.18	-0.00981892
1387.36	-0.0105657
1388.55	-0.00745005
1389.73	-0.00601894
1390.92	-0.00461148
1392.1	-0.0027006
1393.29	0.000951193
1394.47	0.00297475
1395.66	-0.00191547
1396.84	-9.45864e-005
1398.03	0.002985
1399.21	0.00623501
1400.4	0.0073012
1401.58	0.0092909
1402.77	0.00889279
1403.95	0.0117305
1405.14	0.0152373
1406.32	0.0168342
1407.51	0.0165615
1408.69	0.0147588
1409.88	0.0146592
1411.06	0.0162709
1412.25	0.018787
1413.43	0.0190531
1414.62	0.0209227
1415.8	0.0217899
1416.99	0.0215071
1418.17	0.0182494
1419.36	0.0197981
1420.54	0.0230898
1421.73	0.0226105
1422.91	0.0194867
1424.1	0.0178922
1425.28	0.0221081
1426.47	0.0230017
1427.65	0.0253827
1428.84	0.0265752
1430.02	0.0278809
1431.21	0.0298242
1432.39	0.0302457
1433.58	0.034671
1434.76	0.0400453
1435.95	0.0428902
1437.13	0.0426955
1438.32	0.0439398
1439.5	0.0475883
1440.69	0.0537864
1441.87	0.0572348
1443.06	0.0657263
1444.24	0.0704924
1445.43	0.0764967
1446.61	0.0814325
1447.8	0.0916521
1448.98	0.100876
1450.17	0.111822
1451.35	0.124458
1452.54	0.143343
1453.72	0.163103
1454.91	0.180441
1456.09	0.196715
1457.28	0.216069
1458.46	0.233226
1459.65	0.248626
1460.83	0.263804
1462.02	0.278533
1463.2	0.298579
1464.39	0.316501
1465.57	0.329205
1466.76	0.341134
1467.94	0.34488
1469.13	0.345652
1470.31	0.344472
1471.5	0.346622
1472.68	0.347876
1473.87	0.343051
1475.05	0.337577
1476.24	0.327969
1477.42	0.315977
1478.61	0.305382
1479.79	0.29208
1480.98	0.273289
1482.16	0.256969
1483.35	0.240051
1484.53	0.22378
1485.72	0.207286
1486.9	0.193328
1488.09	0.175317
1489.27	0.15706
1490.46	0.141264
1491.64	0.128961
1492.83	0.119211
1494.01	0.108187
1495.2	0.0958507
1496.38	0.0867427
1497.57	0.0817595
1498.75	0.0765754
1499.94	0.0696182
1501.12	0.065952
1502.31	0.0649119
1503.49	0.062189
1504.68	0.0584334
1505.86	0.0564624
1507.05	0.0556649
1508.23	0.0498097
1509.42	0.0461741
1510.6	0.0457428
1511.79	0.0498251
1512.97	0.0486291
1514.16	0.0463801
1515.34	0.0454882
1516.53	0.0443045
1517.71	0.0441167
1518.9	0.040743
1520.08	0.0376878
1521.27	0.0376912
1522.45	0.0387755
1523.64	0.0386528
1524.82	0.0420162
1526.01	0.0431655
1527.19	0.0408849
1528.38	0.0390506
1529.56	0.0395312
1530.75	0.0396014
1531.93	0.0368256
1533.12	0.0377509
1534.3	0.0389918
1535.49	0.0397963
1536.67	0.0401093
1537.86	0.0395091
1539.04	0.0391447
1540.23	0.0401008
1541.41	0.0379657
1542.6	0.0348516
1543.78	0.0339663
1544.97	0.031846
1546.15	0.031256
1547.34	0.0323326
1548.52	0.0305851
1549.71	0.0304279
1550.89	0.0270998
1552.08	0.025979
1553.26	0.0248186
1554.45	0.0238821
1555.63	0.0239144
1556.82	0.0214194
1558	0.0192467
1559.19	0.0185337
1560.37	0.020769
1561.56	0.0215636
1562.74	0.0202823
1563.93	0.0181279
1565.11	0.0205213
1566.3	0.0204622
1567.48	0.022536
1568.67	0.0229873
1569.85	0.0233895
1571.04	0.0239837
1572.22	0.0236825
1573.41	0.0248431
1574.59	0.0261082
1575.78	0.0274212
1576.96	0.0266578
1578.15	0.0268426
1579.33	0.0255539
1580.52	0.0249236
1581.7	0.0245506
1582.89	0.0240964
1584.07	0.0202468
1585.26	0.0195187
1586.44	0.02011
1587.63	0.01931
1588.81	0.0174948
1590	0.0163208
1591.18	0.0153151
1592.37	0.0143453
1593.55	0.0140635
1594.74	0.0142426
1595.92	0.016933
1597.11	0.0186905
1598.29	0.0164892
1599.48	0.0174419
1600.66	0.0181692
1601.85	0.0186104
1603.03	0.0185791
1604.22	0.0183395
1605.4	0.0173321
1606.59	0.0158774
1607.77	0.0163394
1608.96	0.0183207
1610.14	0.0179662
1611.33	0.0161622
1612.51	0.0125058
1613.7	0.00964932
1614.88	0.00994027
1616.07	0.00901713
1617.25	0.0110011
1618.44	0.00980468
1619.62	0.00801607
1620.81	0.00835813
1621.99	0.0092739
1623.18	0.00808426
1624.36	0.00470371
1625.55	0.00395523
1626.73	0.00509893
1627.92	0.00660078
1629.1	0.00808564
1630.29	0.012356
1631.47	0.0133004
1632.66	0.0139547
1633.84	0.0149733
1635.03	0.0154721
1636.21	0.0166169
1637.4	0.017262
1638.58	0.0200934
1639.77	0.0239653
1640.95	0.0264651
1642.14	0.0258543
1643.32	0.0275282
1644.51	0.0299464
1645.69	0.0317564
1646.88	0.0336146
1648.06	0.0349026
1649.25	0.0350879
1650.43	0.0394243
1651.62	0.0441262
1652.8	0.0487855
1653.99	0.0510049
1655.17	0.0537916
1656.36	0.0562592
1657.54	0.0582465
1658.73	0.0608721
1659.91	0.0604648
1661.1	0.0621199
1662.28	0.0638985
1663.47	0.0640717
1664.65	0.0657638
1665.84	0.0670042
1667.02	0.0655486
1668.21	0.0676546
1669.39	0.065615
1670.58	0.0674542
1671.76	0.0694249
1672.95	0.0696626
1674.13	0.0698672
1675.32	0.0702123
1676.5	0.0733682
1677.69	0.0747281
1678.87	0.0755623
1680.06	0.0772688
1681.24	0.0787366
1682.43	0.0835629
1683.61	0.0859504
1684.8	0.0866781
1685.98	0.090025
1687.17	0.089378
1688.35	0.0895092
1689.54	0.0943569
1690.72	0.0986838
1691.91	0.103287
1693.09	0.104318
1694.28	0.103552
1695.46	0.105275
1696.65	0.106954
1697.83	0.10757
1699.02	0.107876
1700.2	0.10954
1701.39	0.108727
1702.57	0.109747
1703.76	0.112733
1704.94	0.111779
1706.13	0.110691
1707.31	0.109743
1708.5	0.108984
1709.68	0.111553
1710.87	0.113829
1712.05	0.112359
1713.24	0.114484
1714.42	0.1168
1715.61	0.116283
1716.79	0.117155
1717.98	0.118951
1719.16	0.120027
1720.35	0.122838
1721.53	0.125852
1722.72	0.12748
1723.9	0.127974
1725.09	0.126729
1726.27	0.126615
1727.46	0.126315
1728.64	0.1273
1729.83	0.126013
1731.01	0.124128
1732.2	0.122576
1733.38	0.123122
1734.57	0.123714
1735.75	0.122714
1736.94	0.122549
1738.12	0.121661
1739.31	0.120258
1740.49	0.120142
1741.68	0.119651
1742.86	0.119629
1744.05	0.11958
1745.23	0.11737
1746.42	0.116472
1747.6	0.116594
1748.79	0.116577
1749.97	0.113982
1751.16	0.113187
1752.34	0.111377
1753.53	0.10892
1754.71	0.11057
1755.9	0.108384
1757.08	0.10731
1758.27	0.106925
1759.45	0.103635
1760.64	0.100681
1761.82	0.100086
1763.01	0.0987759
1764.19	0.0969732
1765.38	0.0948394
1766.56	0.0960098
1767.75	0.0930066
1768.93	0.0924531
1770.12	0.0875522
1771.3	0.0840438
1772.49	0.0812863
1773.67	0.0787422
1774.86	0.0770657
1776.04	0.0756601
1777.23	0.0749537
1778.41	0.0733548
1779.6	0.0699063
1780.78	0.0660714
1781.97	0.0629899
1783.15	0.0587989
1784.34	0.0551713
1785.52	0.0500135
1786.71	0.0463796
1787.89	0.0429156
1789.08	0.0385743
1790.26	0.0329802
1791.45	0.0265595
1792.63	0.0246607
1793.82	0.0181035
1795	0.0135014
