405	-0.0105657
406.185	0.00914183
407.37	0.0298262
408.555	0.0470415
409.74	0.0628042
410.925	0.0766707
412.11	0.0934044
413.295	0.115717
414.48	0.139811
415.665	0.163379
416.85	0.177008
418.035	0.199088
419.22	0.216202
420.405	0.234935
421.59	0.251753
422.775	0.264589
423.96	0.276281
425.145	0.287434
426.33	0.298619
427.515	0.311859
428.7	0.313943
429.885	0.31791
431.07	0.324706
432.255	0.316262
433.44	0.310244
434.625	0.301586
435.81	0.291892
436.995	0.280869
438.18	0.266454
439.365	0.248691
440.55	0.227914
441.735	0.213682
442.92	0.200996
444.105	0.186078
445.29	0.172901
446.475	0.156359
447.66	0.143686
448.845	0.133144
450.03	0.123168
451.215	0.116071
452.4	0.109003
453.585	0.0938767
454.77	0.0826913
455.955	0.0721223
457.14	0.0710128
458.325	0.0723532
459.51	0.0774591
460.695	0.0769745
461.88	0.0728387
463.065	0.0742307
464.25	0.0826187
465.435	0.0907803
466.62	0.0983264
467.805	0.113001
468.99	0.12824
470.175	0.141259
471.36	0.157485
472.545	0.180771
473.73	0.210066
474.915	0.240848
476.1	0.269933
477.285	0.297495
478.47	0.324424
479.655	0.352274
480.84	0.392818
482.025	0.443653
483.21	0.48152
484.395	0.517391
485.58	0.55978
486.765	0.602663
487.95	0.641789
489.135	0.679226
490.32	0.718164
491.505	0.756727
492.69	0.789492
493.875	0.816131
495.06	0.839245
496.245	0.85531
497.43	0.871518
498.615	0.883602
499.8	0.884792
500.985	0.874875
502.17	0.862567
503.355	0.849908
504.54	0.831502
505.725	0.805737
506.91	0.777811
508.095	0.750539
509.28	0.718075
510.465	0.681194
511.65	0.641222
512.835	0.601837
514.02	0.565184
515.205	0.529949
516.39	0.493998
517.575	0.459639
518.76	0.429841
519.945	0.402445
521.13	0.373326
522.315	0.343531
523.5	0.318209
524.685	0.298581
525.87	0.273996
527.055	0.252467
528.24	0.237177
529.424	0.218849
530.61	0.203297
531.795	0.190313
532.98	0.177424
534.165	0.167927
535.35	0.159629
536.535	0.153548
537.72	0.150035
538.905	0.147194
540.09	0.148846
541.275	0.149548
542.46	0.148398
543.645	0.14557
544.83	0.149981
546.014	0.157558
547.199	0.16276
548.384	0.16838
549.569	0.175268
550.754	0.179904
551.939	0.184112
553.124	0.190125
554.309	0.198012
555.494	0.204749
556.679	0.209544
557.864	0.212128
559.049	0.212837
560.234	0.214291
561.419	0.217076
562.604	0.222164
563.789	0.227135
564.974	0.2247
566.159	0.217763
567.344	0.209822
568.529	0.207397
569.714	0.207794
570.899	0.205474
572.084	0.204611
573.269	0.202444
574.454	0.197707
575.639	0.191116
576.824	0.185542
578.009	0.180838
579.194	0.176741
580.379	0.175687
581.564	0.173417
582.749	0.166109
583.934	0.158037
585.119	0.158724
586.304	0.159105
587.489	0.15738
588.674	0.15275
589.859	0.150176
591.044	0.144853
592.229	0.13943
593.414	0.136465
594.599	0.134219
595.784	0.132957
596.969	0.133764
598.154	0.134977
599.339	0.132126
600.524	0.129464
601.709	0.124587
602.894	0.130483
604.079	0.124098
605.264	0.1182
606.449	0.11709
607.634	0.117237
608.819	0.117747
610.004	0.118265
611.189	0.1168
612.374	0.112483
613.559	0.1071
614.744	0.103935
615.929	0.0988521
617.114	0.0896318
618.299	0.0861312
619.484	0.0793377
620.669	0.0784508
621.854	0.0724619
623.039	0.0726332
624.224	0.0754444
625.409	0.0718874
626.594	0.062591
627.779	0.0550135
628.964	0.0517961
630.149	0.0481667
631.334	0.0435545
632.519	0.0476186
633.704	0.0478162
634.889	0.0464188
636.074	0.0468481
637.259	0.0511971
638.444	0.0517829
639.629	0.0541196
640.814	0.0536662
641.999	0.0529281
643.184	0.0517065
644.369	0.0519018
645.554	0.0555544
646.739	0.0582399
647.924	0.0579368
649.109	0.0602195
650.294	0.0658819
651.479	0.0669062
652.664	0.070524
653.849	0.0777588
655.034	0.0824644
656.219	0.0793307
657.404	0.0832837
658.589	0.0864579
659.774	0.0904995
660.959	0.0949901
662.144	0.0995599
663.329	0.105347
664.514	0.113373
665.699	0.123128
666.884	0.130927
668.069	0.14222
669.254	0.151585
670.439	0.159882
671.624	0.170911
672.809	0.174648
673.994	0.184308
675.179	0.195346
676.364	0.201428
677.549	0.204445
678.734	0.208497
679.919	0.215702
681.104	0.223774
682.289	0.228182
683.474	0.227672
684.659	0.225069
685.844	0.221465
687.029	0.215195
688.214	0.20899
689.399	0.198975
690.584	0.190029
691.769	0.178322
692.954	0.168953
694.139	0.158217
695.324	0.151425
696.509	0.146514
697.694	0.139642
698.879	0.13055
700.064	0.1217
701.249	0.111518
702.434	0.102894
703.619	0.100747
704.804	0.0979964
705.989	0.0903906
707.174	0.0861458
708.359	0.0912413
709.544	0.0875884
710.729	0.0911114
711.914	0.0900695
713.099	0.0867519
714.284	0.0832138
715.469	0.079709
716.654	0.0786339
717.839	0.0771039
719.024	0.0762438
720.209	0.0806976
721.394	0.0844012
722.579	0.0829435
723.764	0.0809464
724.949	0.0797643
726.134	0.0776506
727.319	0.0744695
728.504	0.0724096
729.689	0.0692489
730.874	0.061318
732.059	0.0672241
733.244	0.0716355
734.429	0.0760229
735.614	0.0749092
736.799	0.0820952
737.984	0.082399
739.169	0.0802241
740.354	0.0772516
741.539	0.0774093
742.724	0.0811502
743.909	0.0829628
745.094	0.0830961
746.279	0.084269
747.464	0.0855228
748.649	0.09067
749.834	0.0927677
751.019	0.0862053
752.204	0.0838596
753.389	0.0775969
754.574	0.0784538
755.759	0.0647627
756.944	0.0584259
758.129	0.0563169
759.314	0.0565395
760.499	0.0559949
761.684	0.0515562
762.869	0.0530863
764.054	0.0534023
765.239	0.050971
766.424	0.0464294
767.609	0.0439766
768.794	0.0477397
769.979	0.0496069
771.164	0.0481332
772.349	0.0502492
773.534	0.0530414
774.719	0.0586267
775.904	0.0597892
777.089	0.0580296
778.274	0.0585553
779.459	0.0580545
780.644	0.0637769
781.829	0.0594486
783.014	0.0552542
784.199	0.0559004
785.384	0.0595479
786.569	0.058711
787.754	0.0589024
788.939	0.060344
790.124	0.0612746
791.309	0.061161
792.494	0.0586337
793.679	0.0546881
794.864	0.0544032
796.049	0.0586304
797.234	0.059739
798.419	0.0618481
799.604	0.0655616
800.789	0.072605
801.974	0.0779046
803.159	0.0864855
804.344	0.0956913
805.529	0.111117
806.714	0.118557
807.898	0.129313
809.083	0.145715
810.268	0.162629
811.454	0.186437
812.639	0.215839
813.824	0.239279
815.009	0.264375
816.194	0.2878
817.379	0.308012
818.564	0.330476
819.749	0.352933
820.934	0.374051
822.119	0.393065
823.304	0.405408
824.489	0.419351
825.673	0.44015
826.858	0.457268
828.043	0.464454
829.228	0.477258
830.413	0.484318
831.598	0.492537
832.783	0.505992
833.968	0.515755
835.153	0.529771
836.338	0.546582
837.523	0.565503
838.708	0.58803
839.893	0.607627
841.078	0.632366
842.263	0.658864
843.448	0.685142
844.633	0.713328
845.818	0.748385
847.003	0.782286
848.188	0.811832
849.373	0.841662
850.558	0.867796
851.743	0.89109
852.928	0.912315
854.113	0.926801
855.298	0.935003
856.483	0.944822
857.668	0.948225
858.853	0.946119
860.038	0.94197
861.223	0.938131
862.408	0.921758
863.593	0.903952
864.778	0.876698
865.963	0.855469
867.148	0.825759
868.333	0.797381
869.518	0.763389
870.703	0.726081
871.888	0.690189
873.073	0.658105
874.258	0.621686
875.443	0.587657
876.628	0.558796
877.813	0.530478
878.998	0.496706
880.183	0.463855
881.368	0.436382
882.553	0.409366
883.738	0.379668
884.923	0.349027
886.108	0.326309
887.293	0.304918
888.478	0.290298
889.663	0.274212
890.848	0.265205
892.033	0.258488
893.218	0.250155
894.403	0.2436
895.588	0.238511
896.773	0.235115
897.958	0.234991
899.143	0.243177
900.328	0.243761
901.513	0.251207
902.698	0.267619
903.883	0.28101
905.068	0.295345
906.253	0.308743
907.438	0.326124
908.623	0.340086
909.808	0.352011
910.993	0.367065
912.178	0.382214
913.363	0.396112
914.548	0.410475
915.733	0.424722
916.918	0.432142
918.103	0.437728
919.288	0.445369
920.473	0.450986
921.658	0.455068
922.843	0.457508
924.028	0.459786
925.213	0.45748
926.398	0.456301
927.583	0.457182
928.768	0.455103
929.953	0.448432
931.138	0.437323
932.323	0.424188
933.508	0.40799
934.693	0.392654
935.878	0.379044
937.063	0.367204
938.248	0.353454
939.433	0.334024
940.618	0.313397
941.803	0.286929
942.988	0.26968
944.173	0.248214
945.358	0.227216
946.543	0.209174
947.728	0.1942
948.913	0.180253
950.098	0.169841
951.283	0.162102
952.468	0.158569
953.653	0.15276
954.838	0.145026
956.023	0.137589
957.208	0.135637
958.393	0.138825
959.578	0.144159
960.763	0.146687
961.948	0.150486
963.133	0.157759
964.318	0.162356
965.503	0.16351
966.688	0.167319
967.873	0.174227
969.058	0.180246
970.243	0.186538
971.428	0.195236
972.613	0.203195
973.798	0.208247
974.983	0.217038
976.168	0.221396
977.353	0.225083
978.538	0.224934
979.723	0.229558
980.908	0.230506
982.093	0.229453
983.278	0.232188
984.463	0.234517
985.648	0.230742
986.833	0.226141
988.018	0.22045
989.203	0.213319
990.388	0.205845
991.573	0.205269
992.758	0.200312
993.943	0.197594
995.128	0.190931
996.313	0.19472
997.498	0.196005
998.683	0.195389
999.868	0.192756
1001.05	0.191328
1002.24	0.187283
1003.42	0.183073
1004.61	0.183866
1005.79	0.186637
1006.98	0.186799
1008.16	0.188746
1009.35	0.189997
1010.53	0.195798
1011.72	0.19948
1012.9	0.205438
1014.09	0.208609
1015.27	0.210721
1016.46	0.215865
1017.64	0.225709
1018.83	0.231992
1020.01	0.240121
1021.2	0.254158
1022.38	0.271162
1023.57	0.288283
1024.75	0.306302
1025.94	0.32297
1027.12	0.34452
1028.31	0.364036
1029.49	0.384318
1030.68	0.408128
1031.86	0.434134
1033.05	0.464078
1034.23	0.494007
1035.42	0.523154
1036.6	0.553308
1037.79	0.582947
1038.97	0.610525
1040.16	0.635966
1041.34	0.658886
1042.53	0.680562
1043.71	0.705732
1044.9	0.72751
1046.08	0.74275
1047.27	0.762128
1048.45	0.775848
1049.64	0.787171
1050.82	0.794256
1052.01	0.800877
1053.19	0.808552
1054.38	0.809597
1055.56	0.811854
1056.75	0.816792
1057.93	0.818559
1059.12	0.815043
1060.3	0.810971
1061.49	0.805249
1062.67	0.796956
1063.86	0.795617
1065.04	0.784112
1066.23	0.769571
1067.41	0.758829
1068.6	0.746157
1069.78	0.730102
1070.97	0.708492
1072.15	0.693073
1073.34	0.677921
1074.52	0.658255
1075.71	0.639091
1076.89	0.62227
1078.08	0.608865
1079.26	0.59208
1080.45	0.580271
1081.63	0.566141
1082.82	0.55405
1084	0.547283
1085.19	0.535874
1086.37	0.524678
1087.56	0.512608
1088.74	0.507952
1089.93	0.501976
1091.11	0.492294
1092.3	0.485529
1093.48	0.484361
1094.67	0.477478
1095.85	0.471642
1097.04	0.472094
1098.22	0.467405
1099.41	0.458899
1100.59	0.451584
1101.78	0.449031
1102.96	0.449265
1104.15	0.452738
1105.33	0.459494
1106.52	0.456484
1107.7	0.457073
1108.89	0.460396
1110.07	0.45719
1111.26	0.449722
1112.44	0.450049
1113.63	0.452159
1114.81	0.442181
1116	0.431198
1117.18	0.42019
1118.37	0.415183
1119.55	0.402685
1120.74	0.383649
1121.92	0.365945
1123.11	0.345029
1124.29	0.326998
1125.48	0.306677
1126.66	0.28446
1127.85	0.267914
1129.03	0.253496
1130.22	0.231754
1131.4	0.212393
1132.59	0.199758
1133.77	0.189299
1134.96	0.173843
1136.14	0.158796
1137.33	0.143787
1138.51	0.135951
1139.7	0.127973
1140.88	0.120256
1142.07	0.11281
1143.25	0.106997
1144.44	0.0989029
1145.62	0.0934359
1146.81	0.0872178
1147.99	0.0832028
1149.18	0.0734721
1150.36	0.0697443
1151.55	0.0640837
1152.73	0.0647305
1153.92	0.0577692
1155.1	0.0545409
1156.29	0.052295
1157.47	0.0480113
1158.66	0.0483977
1159.84	0.0467504
1161.03	0.0468024
1162.21	0.0508497
1163.4	0.0514038
1164.58	0.0507252
1165.77	0.0502611
1166.95	0.0488899
1168.14	0.047923
1169.32	0.0505921
1170.51	0.0529934
1171.69	0.0578664
1172.88	0.0584761
1174.06	0.0577808
1175.25	0.0572589
1176.43	0.0553254
1177.62	0.056161
1178.8	0.0572989
1179.99	0.0592081
1181.17	0.0589364
1182.36	0.0575581
1183.54	0.0601528
1184.73	0.0654487
1185.91	0.0684876
1187.1	0.0703328
1188.28	0.0712983
1189.47	0.0757977
1190.65	0.0827413
1191.84	0.0848595
1193.02	0.0896715
1194.21	0.0969986
1195.39	0.103338
1196.58	0.108292
1197.76	0.110702
1198.95	0.114457
1200.13	0.119882
1201.32	0.125342
1202.5	0.131009
1203.69	0.135704
1204.87	0.143146
1206.06	0.150113
1207.24	0.150665
1208.43	0.151134
1209.61	0.155429
1210.8	0.157645
1211.98	0.157512
1213.17	0.155192
1214.35	0.1538
1215.54	0.154054
1216.72	0.154266
1217.91	0.154858
1219.09	0.152857
1220.28	0.152689
1221.46	0.151396
1222.65	0.145935
1223.83	0.143105
1225.02	0.13961
1226.2	0.142302
1227.39	0.14476
1228.57	0.148772
1229.76	0.149348
1230.94	0.153063
1232.13	0.156817
1233.31	0.16482
1234.5	0.173159
1235.68	0.181762
1236.87	0.185756
1238.05	0.191245
1239.24	0.20118
1240.42	0.204709
1241.61	0.215499
1242.79	0.22811
1243.98	0.233659
1245.16	0.240461
1246.35	0.244195
1247.53	0.254239
1248.72	0.260042
1249.9	0.266748
1251.09	0.268613
1252.27	0.271787
1253.46	0.276034
1254.64	0.283776
1255.83	0.285682
1257.01	0.286684
1258.2	0.292468
1259.38	0.293049
1260.57	0.296045
1261.75	0.299741
1262.94	0.302544
1264.12	0.303083
1265.31	0.301719
1266.49	0.30236
1267.68	0.301792
1268.86	0.301717
1270.05	0.302442
1271.23	0.301876
1272.42	0.300585
1273.6	0.300676
1274.79	0.29766
1275.97	0.296691
1277.16	0.296406
1278.34	0.295305
1279.53	0.29331
1280.71	0.291071
1281.9	0.296522
1283.08	0.296648
1284.27	0.291328
1285.45	0.292899
1286.64	0.289591
1287.82	0.285598
1289.01	0.282502
1290.19	0.280724
1291.38	0.282911
1292.56	0.283793
1293.75	0.282476
1294.93	0.282304
1296.12	0.281389
1297.3	0.280319
1298.49	0.281868
1299.67	0.281552
1300.86	0.285649
1302.04	0.291951
1303.23	0.296766
1304.41	0.299943
1305.6	0.301642
1306.78	0.300271
1307.97	0.299194
1309.15	0.300285
1310.34	0.299663
1311.52	0.297946
1312.71	0.296566
1313.89	0.295154
1315.08	0.290051
1316.26	0.284245
1317.45	0.278805
1318.63	0.275679
1319.82	0.268627
1321	0.26494
1322.19	0.264011
1323.37	0.264419
1324.56	0.266086
1325.74	0.266673
1326.93	0.261108
1328.11	0.257082
1329.3	0.256223
1330.48	0.25778
1331.67	0.261337
1332.85	0.264244
1334.04	0.268171
1335.22	0.268627
1336.41	0.267364
1337.59	0.264665
1338.78	0.260776
1339.96	0.260954
1341.15	0.261795
1342.33	0.256546
1343.52	0.253985
1344.7	0.257687
1345.89	0.257994
1347.07	0.256254
1348.26	0.254697
1349.44	0.254068
1350.63	0.251286
1351.81	0.250032
1353	0.248304
1354.18	0.249246
1355.37	0.252698
1356.55	0.254411
1357.74	0.251154
1358.92	0.251845
1360.11	0.253841
1361.29	0.25055
1362.48	0.257532
1363.66	0.256942
1364.85	0.256062
1366.03	0.252106
1367.22	0.251157
1368.4	0.245515
1369.59	0.241432
1370.77	0.2411
1371.96	0.241109
1373.14	0.238392
1374.33	0.236758
1375.51	0.236618
1376.7	0.235581
1377.88	0.236924
1379.07	0.235499
1380.25	0.232363
1381.44	0.232024
1382.62	0.230514
1383.81	0.22828
1384.99	0.230427
1386.18	0.235838
1387.36	0.239696
1388.55	0.237151
1389.73	0.239497
1390.92	0.242104
1392.1	0.242154
1393.29	0.244693
1394.47	0.245855
1395.66	0.245132
1396.84	0.248529
1398.03	0.245298
1399.21	0.249644
1400.4	0.2542
1401.58	0.258925
1402.77	0.260306
1403.95	0.258596
1405.14	0.258644
1406.32	0.257946
1407.51	0.255661
1408.69	0.25458
1409.88	0.252198
1411.06	0.251275
1412.25	0.250379
1413.43	0.25204
1414.62	0.254989
1415.8	0.254828
1416.99	0.252733
1418.17	0.252777
1419.36	0.252282
1420.54	0.259328
1421.73	0.262532
1422.91	0.267115
1424.1	0.269829
1425.28	0.273019
1426.47	0.277423
1427.65	0.280534
1428.84	0.286028
1430.02	0.287949
1431.21	0.287077
1432.39	0.290305
1433.58	0.293589
1434.76	0.295521
1435.95	0.29518
1437.13	0.296403
1438.32	0.301362
1439.5	0.307193
1440.69	0.314149
1441.87	0.316628
1443.06	0.319769
1444.24	0.331336
1445.43	0.335153
1446.61	0.344462
1447.8	0.359916
1448.98	0.371182
1450.17	0.388413
1451.35	0.404741
1452.54	0.425293
1453.72	0.446365
1454.91	0.464017
1456.09	0.483702
1457.28	0.503343
1458.46	0.526617
1459.65	0.549667
1460.83	0.56823
1462.02	0.589413
1463.2	0.609233
1464.39	0.625115
1465.57	0.637319
1466.76	0.648794
1467.94	0.66017
1469.13	0.665123
1470.31	0.66261
1471.5	0.661014
1472.68	0.654798
1473.87	0.649107
1475.05	0.637018
1476.24	0.623023
1477.42	0.611309
1478.61	0.595718
1479.79	0.577663
1480.98	0.556552
1482.16	0.538275
1483.35	0.519082
1484.53	0.492118
1485.72	0.470071
1486.9	0.45437
1488.09	0.431455
1489.27	0.41134
1490.46	0.389986
1491.64	0.374507
1492.83	0.360653
1494.01	0.345682
1495.2	0.327103
1496.38	0.310334
1497.57	0.298033
1498.75	0.287516
1499.94	0.276035
1501.12	0.268118
1502.31	0.263698
1503.49	0.259438
1504.68	0.262115
1505.86	0.262407
1507.05	0.258261
1508.23	0.256806
1509.42	0.256952
1510.6	0.257213
1511.79	0.257023
1512.97	0.257084
1514.16	0.255485
1515.34	0.255534
1516.53	0.254104
1517.71	0.253587
1518.9	0.252335
1520.08	0.248996
1521.27	0.243115
1522.45	0.237364
1523.64	0.234791
1524.82	0.229551
1526.01	0.222129
1527.19	0.219962
1528.38	0.220554
1529.56	0.220236
1530.75	0.215959
1531.93	0.211989
1533.12	0.209613
1534.3	0.209995
1535.49	0.210147
1536.67	0.206533
1537.86	0.202432
1539.04	0.199486
1540.23	0.197609
1541.41	0.197532
1542.6	0.198161
1543.78	0.192002
1544.97	0.184948
1546.15	0.181158
1547.34	0.179273
1548.52	0.17944
1549.71	0.173723
1550.89	0.168556
1552.08	0.161597
1553.26	0.157389
1554.45	0.153771
1555.63	0.151957
1556.82	0.149614
1558	0.145888
1559.19	0.14031
1560.37	0.138016
1561.56	0.137449
1562.74	0.135537
1563.93	0.134121
1565.11	0.128822
1566.3	0.130258
1567.48	0.128436
1568.67	0.127155
1569.85	0.125676
1571.04	0.123865
1572.22	0.119043
1573.41	0.11444
1574.59	0.112265
1575.78	0.113209
1576.96	0.113124
1578.15	0.110499
1579.33	0.110757
1580.52	0.108868
1581.7	0.110007
1582.89	0.107979
1584.07	0.10561
1585.26	0.103219
1586.44	0.101276
1587.63	0.100679
1588.81	0.100504
1590	0.100144
1591.18	0.0982102
1592.37	0.0949387
1593.55	0.0910591
1594.74	0.090255
1595.92	0.0882733
1597.11	0.0896019
1598.29	0.0881746
1599.48	0.0904509
1600.66	0.0919433
1601.85	0.0939047
1603.03	0.0928078
1604.22	0.0912746
1605.4	0.0908813
1606.59	0.090213
1607.77	0.0901936
1608.96	0.0904257
1610.14	0.0909112
1611.33	0.0895726
1612.51	0.0850712
1613.7	0.0819534
1614.88	0.0801723
1616.07	0.075438
1617.25	0.0719362
1618.44	0.0675776
1619.62	0.0641791
1620.81	0.0621443
1621.99	0.0607127
1623.18	0.0593996
1624.36	0.0588169
1625.55	0.0566151
1626.73	0.0529523
1627.92	0.0535106
1629.1	0.0560255
1630.29	0.0530186
1631.47	0.0494451
1632.66	0.0505536
1633.84	0.0499249
1635.03	0.0530885
1636.21	0.0560633
1637.4	0.0522542
1638.58	0.0520948
1639.77	0.0538474
1640.95	0.0533584
1642.14	0.0557294
1643.32	0.056096
1644.51	0.0551882
1645.69	0.0554284
1646.88	0.0575
1648.06	0.0566638
1649.25	0.0507773
1650.43	0.0468415
1651.62	0.0457
1652.8	0.0457232
1653.99	0.0477335
1655.17	0.0498586
1656.36	0.0488928
1657.54	0.0488285
1658.73	0.0473322
1659.91	0.0477203
1661.1	0.0483967
1662.28	0.0503354
1663.47	0.0504965
1664.65	0.0524335
1665.84	0.0567558
1667.02	0.0645075
1668.21	0.064609
1669.39	0.065473
1670.58	0.0719295
1671.76	0.0726603
1672.95	0.0726372
1674.13	0.0742929
1675.32	0.0776902
1676.5	0.0782524
1677.69	0.0786439
1678.87	0.0800848
1680.06	0.0846645
1681.24	0.0872263
1682.43	0.0885046
1683.61	0.0865534
1684.8	0.0872536
1685.98	0.0878662
1687.17	0.0883925
1688.35	0.0898988
1689.54	0.0917909
1690.72	0.0910444
1691.91	0.0912723
1693.09	0.093581
1694.28	0.0942397
1695.46	0.0920496
1696.65	0.0893716
1697.83	0.0883321
1699.02	0.0891052
1700.2	0.0908897
1701.39	0.0917871
1702.57	0.0908012
1703.76	0.0881952
1704.94	0.0884253
1706.13	0.088913
1707.31	0.0899741
1708.5	0.0887581
1709.68	0.0893551
1710.87	0.0885927
1712.05	0.0864912
1713.24	0.0895235
1714.42	0.0925055
1715.61	0.0957784
1716.79	0.0930172
1717.98	0.0950366
1719.16	0.0981082
1720.35	0.10066
1721.53	0.0990457
1722.72	0.0989762
1723.9	0.101866
1725.09	0.103699
1726.27	0.103038
1727.46	0.10627
1728.64	0.107753
1729.83	0.1073
1731.01	0.106237
1732.2	0.106866
1733.38	0.108051
1734.57	0.107221
1735.75	0.105869
1736.94	0.104838
1738.12	0.107169
1739.31	0.107273
1740.49	0.104415
1741.68	0.106507
1742.86	0.105986
1744.05	0.10544
1745.23	0.105986
1746.42	0.105138
1747.6	0.103598
1748.79	0.103058
1749.97	0.103961
1751.16	0.104197
1752.34	0.102281
1753.53	0.103111
1754.71	0.10169
1755.9	0.0994031
1757.08	0.0992267
1758.27	0.0974156
1759.45	0.0984472
1760.64	0.0994289
1761.82	0.0990659
1763.01	0.0979489
1764.19	0.0954591
1765.38	0.0926173
1766.56	0.0884283
1767.75	0.0865448
1768.93	0.0835578
1770.12	0.081637
1771.3	0.0812653
1772.49	0.0810813
1773.67	0.0799378
1774.86	0.0777368
1776.04	0.0744478
1777.23	0.0724804
1778.41	0.0704983
1779.6	0.070091
1780.78	0.0702083
1781.97	0.0696983
1783.15	0.0703816
1784.34	0.0710924
1785.52	0.0719575
1786.71	0.0693157
1787.89	0.0652679
1789.08	0.0624756
1790.26	0.0569087
1791.45	0.055142
1792.63	0.0523809
1793.82	0.0501021
1795	0.0452378
