405	-0.0105657
406.185	-0.00911935
407.37	0.00167484
408.555	0.0148837
409.74	0.030639
410.925	0.0482834
412.11	0.066833
413.295	0.0848569
414.48	0.100915
415.665	0.116435
416.85	0.136809
418.035	0.158359
419.22	0.174329
420.405	0.190818
421.59	0.206124
422.775	0.221555
423.96	0.239528
425.145	0.252989
426.33	0.258606
427.515	0.267095
428.7	0.267619
429.885	0.264962
431.07	0.257435
432.255	0.253155
433.44	0.246804
434.625	0.234749
435.81	0.21913
436.995	0.202963
438.18	0.186634
439.365	0.17025
440.55	0.155674
441.735	0.137659
442.92	0.126755
444.105	0.113593
445.29	0.0995209
446.475	0.0857026
447.66	0.0705518
448.845	0.0562491
450.03	0.0483078
451.215	0.0427368
452.4	0.0317763
453.585	0.0279899
454.77	0.0269744
455.955	0.0233697
457.14	0.0189995
458.325	0.0220372
459.51	0.0227938
460.695	0.0295738
461.88	0.0343987
463.065	0.0334129
464.25	0.0361558
465.435	0.0472802
466.62	0.0593219
467.805	0.0827101
468.99	0.0971087
470.175	0.112883
471.36	0.137562
472.545	0.160345
473.73	0.184003
474.915	0.21418
476.1	0.248838
477.285	0.284793
478.47	0.323783
479.655	0.365167
480.84	0.404493
482.025	0.45021
483.21	0.502791
484.395	0.551981
485.58	0.598423
486.765	0.638389
487.95	0.682562
489.135	0.727256
490.32	0.766877
491.505	0.80396
492.69	0.837594
493.875	0.866672
495.06	0.885142
496.245	0.903487
497.43	0.913333
498.615	0.915514
499.8	0.911214
500.985	0.897956
502.17	0.880221
503.355	0.857993
504.54	0.831694
505.725	0.805191
506.91	0.776466
508.095	0.748979
509.28	0.717731
510.465	0.680215
511.65	0.64059
512.835	0.605159
514.02	0.567437
515.205	0.528352
516.39	0.491067
517.575	0.456577
518.76	0.426695
519.945	0.402632
521.13	0.378894
522.315	0.352121
523.5	0.327794
524.685	0.30622
525.87	0.285549
527.055	0.264381
528.24	0.243284
529.425	0.225803
530.61	0.215702
531.795	0.204234
532.98	0.193506
534.165	0.191406
535.35	0.183281
536.535	0.175195
537.72	0.169826
538.905	0.158398
540.09	0.15552
541.275	0.155275
542.46	0.156939
543.644	0.157118
544.829	0.158308
546.014	0.161146
547.199	0.165397
548.384	0.170442
549.569	0.173088
550.754	0.17414
551.939	0.183355
553.124	0.176655
554.309	0.188026
555.494	0.195862
556.679	0.202198
557.865	0.210694
559.049	0.217022
560.234	0.220144
561.419	0.220487
562.604	0.219607
563.789	0.22058
564.974	0.223697
566.159	0.224829
567.344	0.2253
568.529	0.223382
569.714	0.222639
570.899	0.219178
572.084	0.22297
573.269	0.217974
574.454	0.211723
575.639	0.20695
576.824	0.202508
578.009	0.197747
579.194	0.190343
580.379	0.181271
581.564	0.178865
582.749	0.175712
583.934	0.174797
585.119	0.162883
586.304	0.153752
587.489	0.148945
588.674	0.149256
589.859	0.150195
591.044	0.150841
592.229	0.146502
593.414	0.142601
594.599	0.143009
595.784	0.140309
596.969	0.1352
598.154	0.132769
599.339	0.131958
600.524	0.131347
601.709	0.137102
602.894	0.132562
604.079	0.133338
605.264	0.133745
606.449	0.135116
607.634	0.126075
608.819	0.116504
610.004	0.112118
611.189	0.112198
612.374	0.115998
613.559	0.109696
614.744	0.107647
615.929	0.106638
617.114	0.105835
618.299	0.104804
619.484	0.105125
620.669	0.101231
621.854	0.100841
623.039	0.0976455
624.224	0.0948742
625.409	0.0902882
626.594	0.086824
627.779	0.0845567
628.964	0.0779061
630.149	0.0705788
631.334	0.0651371
632.519	0.0643851
633.704	0.0619238
634.889	0.0553447
636.074	0.0474485
637.259	0.0470228
638.444	0.0435411
639.629	0.0360762
640.814	0.0310228
641.999	0.0299713
643.184	0.0293588
644.369	0.0276917
645.554	0.0270437
646.739	0.0273684
647.924	0.0265531
649.109	0.0269844
650.294	0.0264752
651.479	0.0234527
652.664	0.0265057
653.849	0.0333234
655.034	0.0397921
656.219	0.0410819
657.404	0.0455067
658.589	0.0516625
659.774	0.0517701
660.959	0.0562779
662.144	0.0672172
663.329	0.0776594
664.514	0.0882578
665.699	0.0995329
666.884	0.109108
668.069	0.123111
669.254	0.13683
670.439	0.150095
671.624	0.161688
672.809	0.166143
673.994	0.172293
675.179	0.18203
676.364	0.185188
677.549	0.186738
678.734	0.193637
679.919	0.196911
681.104	0.193987
682.289	0.190661
683.474	0.188248
684.659	0.185986
685.844	0.182381
687.029	0.17519
688.214	0.168616
689.399	0.16177
690.584	0.152137
691.769	0.153526
692.954	0.148301
694.139	0.139897
695.324	0.13451
696.509	0.132383
697.694	0.12537
698.879	0.11805
700.064	0.11129
701.249	0.104108
702.434	0.0989157
703.619	0.0931818
704.804	0.084643
705.989	0.0794226
707.174	0.0722564
708.359	0.0672212
709.544	0.0619464
710.729	0.0542378
711.914	0.04864
713.099	0.0436547
714.284	0.0426949
715.469	0.0367913
716.654	0.0377134
717.839	0.0370953
719.024	0.0407385
720.209	0.0447853
721.394	0.0443015
722.579	0.0460441
723.764	0.0496711
724.949	0.04838
726.134	0.0484346
727.319	0.0518105
728.504	0.0566548
729.689	0.0567969
730.874	0.0601342
732.059	0.0680956
733.244	0.0670437
734.429	0.06909
735.614	0.0668401
736.799	0.0673511
737.984	0.0631145
739.169	0.0604891
740.354	0.0613596
741.539	0.0631749
742.724	0.0642863
743.909	0.0653797
745.094	0.0656211
746.279	0.0617033
747.464	0.0577479
748.649	0.0615126
749.834	0.0607592
751.019	0.0544242
752.204	0.0527885
753.389	0.049785
754.574	0.0565325
755.759	0.0529896
756.944	0.0519996
758.129	0.0544441
759.314	0.0524611
760.499	0.0520667
761.684	0.0488335
762.869	0.0456705
764.054	0.0444081
765.239	0.0436844
766.424	0.0401262
767.609	0.0357308
768.794	0.0333329
769.979	0.032646
771.164	0.0351703
772.349	0.0334477
773.534	0.0274995
774.719	0.0275515
775.904	0.0248388
777.089	0.0263826
778.274	0.0273286
779.459	0.0231135
780.644	0.0253825
781.829	0.0294913
783.014	0.0274852
784.199	0.0265443
785.384	0.0267297
786.569	0.0276154
787.754	0.0307046
788.939	0.0328631
790.124	0.0328875
791.309	0.0341414
792.494	0.0361009
793.679	0.0392443
794.864	0.0422545
796.049	0.039416
797.234	0.0415275
798.419	0.0444504
799.604	0.0488494
800.789	0.0520059
801.974	0.0587649
803.159	0.0731568
804.344	0.0812531
805.529	0.0901158
806.714	0.101573
807.899	0.118172
809.084	0.139302
810.269	0.157302
811.454	0.180498
812.639	0.201485
813.824	0.227676
815.009	0.253748
816.194	0.278817
817.379	0.30521
818.564	0.330287
819.748	0.356499
820.933	0.381068
822.118	0.398626
823.303	0.417874
824.488	0.43443
825.673	0.450141
826.858	0.460392
828.043	0.468166
829.228	0.480123
830.413	0.480554
831.598	0.488927
832.784	0.493205
833.969	0.503555
835.154	0.518082
836.339	0.530173
837.523	0.543639
838.708	0.560621
839.893	0.586571
841.078	0.616841
842.263	0.64762
843.448	0.679151
844.633	0.708245
845.818	0.740466
847.003	0.778079
848.188	0.817016
849.373	0.85015
850.558	0.874092
851.743	0.897037
852.928	0.918818
854.113	0.934546
855.298	0.941833
856.483	0.948225
857.668	0.946256
858.853	0.939313
860.038	0.926209
861.223	0.908352
862.408	0.890165
863.593	0.872479
864.778	0.844958
865.963	0.812158
867.148	0.781739
868.333	0.752662
869.518	0.726136
870.703	0.691342
871.888	0.648879
873.073	0.617592
874.258	0.587615
875.443	0.555858
876.628	0.521882
877.813	0.487105
878.998	0.457474
880.183	0.429089
881.368	0.397792
882.553	0.368459
883.738	0.341467
884.923	0.315617
886.108	0.294232
887.293	0.275618
888.478	0.257938
889.663	0.245998
890.848	0.236226
892.033	0.226008
893.218	0.217449
894.403	0.212107
895.588	0.210692
896.773	0.211541
897.958	0.219043
899.143	0.226361
900.328	0.237529
901.513	0.248266
902.698	0.260145
903.883	0.270026
905.068	0.277966
906.253	0.28642
907.438	0.297865
908.623	0.314262
909.808	0.332693
910.993	0.353385
912.178	0.372475
913.363	0.388758
914.548	0.4061
915.733	0.416754
916.918	0.421652
918.103	0.427292
919.288	0.434405
920.473	0.443179
921.658	0.449525
922.843	0.454173
924.028	0.459185
925.213	0.460076
926.398	0.45906
927.583	0.45123
928.768	0.441923
929.953	0.428132
931.138	0.414527
932.323	0.395272
933.508	0.373723
934.693	0.358002
935.878	0.341562
937.063	0.324852
938.248	0.304058
939.433	0.277913
940.618	0.259658
941.803	0.238066
942.988	0.218501
944.173	0.194242
945.358	0.174937
946.543	0.152471
947.728	0.136009
948.913	0.120753
950.098	0.109343
951.283	0.101497
952.468	0.0922206
953.653	0.086225
954.838	0.0843199
956.023	0.0818741
957.208	0.0815581
958.393	0.081437
959.578	0.082624
960.763	0.0867596
961.948	0.094144
963.133	0.103393
964.318	0.111562
965.503	0.119482
966.688	0.130014
967.873	0.140979
969.058	0.148684
970.243	0.15676
971.428	0.167372
972.613	0.172232
973.798	0.172528
974.983	0.180282
976.168	0.188158
977.353	0.189961
978.538	0.193447
979.723	0.194818
980.908	0.190786
982.093	0.186324
983.278	0.187491
984.463	0.181744
985.648	0.172436
986.833	0.170411
988.018	0.166459
989.203	0.16298
990.388	0.155469
991.573	0.151917
992.758	0.145702
993.943	0.131297
995.128	0.131074
996.313	0.127185
997.498	0.125823
998.683	0.12622
999.868	0.131486
1001.05	0.130715
1002.24	0.131084
1003.42	0.131291
1004.61	0.132
1005.79	0.134967
1006.98	0.134278
1008.16	0.131686
1009.35	0.134285
1010.53	0.140414
1011.72	0.150305
1012.9	0.155315
1014.09	0.161021
1015.27	0.167962
1016.46	0.174181
1017.64	0.185346
1018.83	0.196126
1020.01	0.208462
1021.2	0.22368
1022.38	0.242191
1023.57	0.263131
1024.75	0.282654
1025.94	0.307366
1027.12	0.33137
1028.31	0.350159
1029.49	0.37108
1030.68	0.396593
1031.86	0.423864
1033.05	0.448722
1034.23	0.473129
1035.42	0.495783
1036.6	0.518197
1037.79	0.54299
1038.97	0.567493
1040.16	0.589209
1041.34	0.609168
1042.53	0.632717
1043.71	0.654957
1044.9	0.678035
1046.08	0.70216
1047.27	0.720414
1048.45	0.733929
1049.64	0.747313
1050.82	0.760623
1052.01	0.773988
1053.19	0.783664
1054.38	0.78963
1055.56	0.795337
1056.75	0.800329
1057.93	0.801836
1059.12	0.799594
1060.3	0.790611
1061.49	0.782713
1062.67	0.772907
1063.86	0.758728
1065.04	0.749402
1066.23	0.739853
1067.41	0.726139
1068.6	0.709196
1069.78	0.694054
1070.97	0.677206
1072.15	0.662855
1073.34	0.646353
1074.52	0.630722
1075.71	0.613657
1076.89	0.599341
1078.08	0.588057
1079.26	0.57445
1080.45	0.559642
1081.63	0.544912
1082.82	0.532206
1084	0.518639
1085.19	0.507381
1086.37	0.497946
1087.56	0.487675
1088.74	0.47684
1089.93	0.468239
1091.11	0.460606
1092.3	0.45176
1093.48	0.448932
1094.67	0.442543
1095.85	0.435707
1097.04	0.430004
1098.22	0.424059
1099.41	0.426937
1100.59	0.423136
1101.78	0.422303
1102.96	0.417687
1104.15	0.41729
1105.33	0.412822
1106.52	0.415157
1107.7	0.416612
1108.89	0.412026
1110.07	0.407137
1111.26	0.400472
1112.44	0.394698
1113.63	0.39077
1114.81	0.387098
1116	0.379018
1117.18	0.366341
1118.37	0.360866
1119.55	0.350945
1120.74	0.33956
1121.92	0.319618
1123.11	0.307393
1124.29	0.292312
1125.48	0.271565
1126.66	0.254339
1127.85	0.257992
1129.03	0.255749
1130.22	0.251685
1131.4	0.234805
1132.59	0.216145
1133.77	0.203439
1134.96	0.188699
1136.14	0.170102
1137.33	0.15822
1138.51	0.146249
1139.7	0.141087
1140.88	0.131001
1142.07	0.12043
1143.25	0.11393
1144.44	0.109164
1145.62	0.081529
1146.81	0.0557604
1147.99	0.0395914
1149.18	0.0354778
1150.36	0.0357439
1151.55	0.0301597
1152.73	0.0308468
1153.92	0.0293481
1155.1	0.0262116
1156.29	0.027294
1157.47	0.0246194
1158.66	0.0260013
1159.84	0.0249512
1161.03	0.0259344
1162.21	0.0247936
1163.4	0.0259714
1164.58	0.0298356
1165.77	0.0315061
1166.95	0.0290755
1168.14	0.0300427
1169.32	0.0330728
1170.51	0.0317908
1171.69	0.0330886
1172.88	0.0303389
1174.06	0.0281589
1175.25	0.0275244
1176.43	0.0263131
1177.62	0.0290063
1178.8	0.0313326
1179.99	0.0364359
1181.17	0.0402418
1182.36	0.0413471
1183.54	0.0415377
1184.73	0.042341
1185.91	0.0385881
1187.1	0.038456
1188.28	0.0412294
1189.47	0.0449656
1190.65	0.0487807
1191.84	0.0516216
1193.02	0.0571101
1194.21	0.0629891
1195.39	0.0669926
1196.58	0.0693284
1197.76	0.0680636
1198.95	0.0696903
1200.13	0.0758667
1201.32	0.0791052
1202.5	0.0871412
1203.69	0.0962993
1204.87	0.0998798
1206.06	0.102183
1207.24	0.103569
1208.43	0.106481
1209.61	0.106672
1210.8	0.105143
1211.98	0.110166
1213.17	0.112407
1214.35	0.115169
1215.54	0.120917
1216.72	0.121883
1217.91	0.126102
1219.09	0.132714
1220.28	0.135597
1221.46	0.141729
1222.65	0.145172
1223.83	0.145696
1225.02	0.154439
1226.2	0.163591
1227.39	0.175711
1228.57	0.182367
1229.76	0.184961
1230.94	0.191807
1232.13	0.194827
1233.31	0.202957
1234.5	0.206626
1235.68	0.209871
1236.87	0.215632
1238.05	0.219172
1239.24	0.22571
1240.42	0.234181
1241.61	0.243645
1242.79	0.24385
1243.98	0.247083
1245.16	0.251177
1246.35	0.254651
1247.53	0.256371
1248.72	0.264518
1249.9	0.269062
1251.09	0.274028
1252.27	0.281623
1253.46	0.284594
1254.64	0.286745
1255.83	0.289951
1257.01	0.29307
1258.2	0.296034
1259.38	0.299136
1260.57	0.304697
1261.75	0.309401
1262.94	0.312378
1264.12	0.315121
1265.31	0.314605
1266.49	0.314703
1267.68	0.316276
1268.86	0.317463
1270.05	0.318245
1271.23	0.319766
1272.42	0.319378
1273.6	0.31711
1274.79	0.316639
1275.97	0.3156
1277.16	0.313275
1278.34	0.314356
1279.53	0.314445
1280.71	0.311687
1281.9	0.308132
1283.08	0.304678
1284.27	0.297973
1285.45	0.299704
1286.64	0.298755
1287.82	0.293572
1289.01	0.289523
1290.19	0.292258
1291.38	0.289911
1292.56	0.28557
1293.75	0.285106
1294.93	0.287394
1296.12	0.284781
1297.3	0.28487
1298.49	0.290359
1299.67	0.293616
1300.86	0.29976
1302.04	0.299563
1303.23	0.297464
1304.41	0.300166
1305.6	0.304077
1306.78	0.306381
1307.97	0.307664
1309.15	0.309258
1310.34	0.30993
1311.52	0.310269
1312.71	0.31003
1313.89	0.308499
1315.08	0.307263
1316.26	0.3054
1317.45	0.301121
1318.63	0.299911
1319.82	0.301168
1321	0.295949
1322.19	0.295517
1323.37	0.290632
1324.56	0.284449
1325.74	0.28067
1326.93	0.277864
1328.11	0.275486
1329.3	0.27016
1330.48	0.266407
1331.67	0.262033
1332.85	0.256523
1334.04	0.257922
1335.22	0.258334
1336.41	0.258109
1337.59	0.256877
1338.78	0.25886
1339.96	0.256414
1341.15	0.258838
1342.33	0.260125
1343.52	0.261262
1344.7	0.262193
1345.89	0.258199
1347.07	0.257901
1348.26	0.263285
1349.44	0.265557
1350.63	0.264844
1351.81	0.265732
1353	0.264927
1354.18	0.26529
1355.37	0.26335
1356.55	0.261483
1357.74	0.26057
1358.92	0.259426
1360.11	0.259274
1361.29	0.260014
1362.48	0.266915
1363.66	0.269038
1364.85	0.261517
1366.03	0.256111
1367.22	0.257727
1368.4	0.259598
1369.59	0.259887
1370.77	0.258135
1371.96	0.255194
1373.14	0.25519
1374.33	0.252851
1375.51	0.249488
1376.7	0.248959
1377.88	0.24795
1379.07	0.244247
1380.25	0.245454
1381.44	0.247184
1382.62	0.246742
1383.81	0.247569
1384.99	0.244626
1386.18	0.236861
1387.36	0.237367
1388.55	0.235974
1389.73	0.239456
1390.92	0.243337
1392.1	0.247297
1393.29	0.247727
1394.47	0.247949
1395.66	0.248847
1396.84	0.249178
1398.03	0.248367
1399.21	0.253711
1400.4	0.257434
1401.58	0.262025
1402.77	0.270132
1403.95	0.271877
1405.14	0.268496
1406.32	0.268689
1407.51	0.26881
1408.69	0.271378
1409.88	0.274655
1411.06	0.278131
1412.25	0.27967
1413.43	0.280233
1414.62	0.279462
1415.8	0.28152
1416.99	0.283713
1418.17	0.28219
1419.36	0.278578
1420.54	0.276458
1421.73	0.280871
1422.91	0.286147
1424.1	0.283902
1425.28	0.286351
1426.47	0.287012
1427.65	0.286052
1428.84	0.285222
1430.02	0.286312
1431.21	0.28737
1432.39	0.286266
1433.58	0.286247
1434.76	0.287467
1435.95	0.288729
1437.13	0.294875
1438.32	0.300712
1439.5	0.305896
1440.69	0.312403
1441.87	0.318749
1443.06	0.322987
1444.24	0.332578
1445.43	0.344597
1446.61	0.358167
1447.8	0.372416
1448.98	0.383412
1450.17	0.402605
1451.35	0.415337
1452.54	0.438004
1453.72	0.45733
1454.91	0.474864
1456.09	0.49825
1457.28	0.517877
1458.46	0.536619
1459.65	0.555625
1460.83	0.57669
1462.02	0.593581
1463.2	0.603884
1464.39	0.616104
1465.57	0.633881
1466.76	0.637055
1467.94	0.643971
1469.13	0.649418
1470.31	0.645089
1471.5	0.645422
1472.68	0.636105
1473.87	0.625459
1475.05	0.6134
1476.24	0.598809
1477.42	0.584432
1478.61	0.567119
1479.79	0.552367
1480.98	0.532738
1482.16	0.50843
1483.35	0.489349
1484.53	0.466603
1485.72	0.439322
1486.9	0.418006
1488.09	0.394145
1489.27	0.373551
1490.46	0.352502
1491.64	0.337948
1492.83	0.321281
1494.01	0.304766
1495.2	0.289977
1496.38	0.274304
1497.57	0.266238
1498.75	0.259772
1499.94	0.252461
1501.12	0.247457
1502.31	0.243202
1503.49	0.234343
1504.68	0.230927
1505.86	0.232057
1507.05	0.229733
1508.23	0.226941
1509.42	0.218967
1510.6	0.218371
1511.79	0.217778
1512.97	0.213848
1514.16	0.207787
1515.34	0.203052
1516.53	0.200027
1517.71	0.195357
1518.9	0.193083
1520.08	0.1919
1521.27	0.190197
1522.45	0.185159
1523.64	0.18414
1524.82	0.182502
1526.01	0.184895
1527.19	0.181377
1528.38	0.176133
1529.56	0.176568
1530.75	0.177611
1531.93	0.177925
1533.12	0.173742
1534.3	0.174509
1535.49	0.173691
1536.67	0.174236
1537.86	0.175003
1539.04	0.173585
1540.23	0.171039
1541.41	0.168698
1542.6	0.167322
1543.78	0.166228
1544.97	0.162321
1546.15	0.160425
1547.34	0.156943
1548.52	0.152262
1549.71	0.150941
1550.89	0.147879
1552.08	0.145526
1553.26	0.143821
1554.45	0.139507
1555.63	0.136396
1556.82	0.133527
1558	0.131253
1559.19	0.128617
1560.37	0.127755
1561.56	0.127391
1562.74	0.124345
1563.93	0.119423
1565.11	0.118302
1566.3	0.117559
1567.48	0.11606
1568.67	0.113387
1569.85	0.108876
1571.04	0.105198
1572.22	0.102775
1573.41	0.100516
1574.59	0.0976668
1575.78	0.0953065
1576.96	0.0917791
1578.15	0.089985
1579.33	0.089319
1580.52	0.0909833
1581.7	0.0895708
1582.89	0.086042
1584.07	0.0845019
1585.26	0.0836229
1586.44	0.085067
1587.63	0.0856832
1588.81	0.0837408
1590	0.0828782
1591.18	0.0831592
1592.37	0.0832108
1593.55	0.0839324
1594.74	0.0838889
1595.92	0.0836242
1597.11	0.0814723
1598.29	0.0795407
1599.48	0.0785797
1600.66	0.0767538
1601.85	0.0756997
1603.03	0.0750795
1604.22	0.0725456
1605.4	0.0718075
1606.59	0.0720174
1607.77	0.0706863
1608.96	0.0694669
1610.14	0.0667316
1611.33	0.0615928
1612.51	0.0555019
1613.7	0.0538517
1614.88	0.0541947
1616.07	0.0511738
1617.25	0.0478465
1618.44	0.0425356
1619.62	0.0388891
1620.81	0.0384754
1621.99	0.0359804
1623.18	0.032077
1624.36	0.0276458
1625.55	0.023083
1626.73	0.0197602
1627.92	0.0189318
1629.1	0.0223937
1630.29	0.0242165
1631.47	0.0261151
1632.66	0.0278921
1633.84	0.0318773
1635.03	0.033563
1636.21	0.0313231
1637.4	0.0281588
1638.58	0.0297788
1639.77	0.0314742
1640.95	0.0348308
1642.14	0.0379915
1643.32	0.0401762
1644.51	0.0414369
1645.69	0.0396846
1646.88	0.0375867
1648.06	0.0344596
1649.25	0.0340442
1650.43	0.0330778
1651.62	0.0320097
1652.8	0.0361138
1653.99	0.0385062
1655.17	0.0387455
1656.36	0.0367392
1657.54	0.0341429
1658.73	0.0334562
1659.91	0.0301884
1661.1	0.0291975
1662.28	0.0291114
1663.47	0.0282379
1664.65	0.0276142
1665.84	0.0287992
1667.02	0.0247982
1668.21	0.0248828
1669.39	0.0203543
1670.58	0.0219686
1671.76	0.0222878
1672.95	0.0218275
1674.13	0.0253485
1675.32	0.0256302
1676.5	0.028737
1677.69	0.0280945
1678.87	0.0287007
1680.06	0.0321562
1681.24	0.0345081
1682.43	0.0358549
1683.61	0.0444319
1684.8	0.0448745
1685.98	0.0468249
1687.17	0.0448901
1688.35	0.0459835
1689.54	0.0500844
1690.72	0.0473674
1691.91	0.0483207
1693.09	0.0511453
1694.28	0.0550974
1695.46	0.0549612
1696.65	0.0536014
1697.83	0.0508004
1699.02	0.048613
1700.2	0.0447288
1701.39	0.041904
1702.57	0.0417695
1703.76	0.0471844
1704.94	0.0471805
1706.13	0.0480233
1707.31	0.0505484
1708.5	0.0526622
1709.68	0.05177
1710.87	0.0499567
1712.05	0.0538737
1713.24	0.0541016
1714.42	0.0596412
1715.61	0.063049
1716.79	0.0646357
1717.98	0.0692962
1719.16	0.068246
1720.35	0.0661386
1721.53	0.0656153
1722.72	0.0669928
1723.9	0.0697832
1725.09	0.0674492
1726.27	0.0682251
1727.46	0.0703052
1728.64	0.0697432
1729.83	0.0708021
1731.01	0.0689049
1732.2	0.0669499
1733.38	0.0665553
1734.57	0.0668633
1735.75	0.0672128
1736.94	0.0686386
1738.12	0.0680233
1739.31	0.0655422
1740.49	0.0664885
1741.68	0.0671245
1742.86	0.067939
1744.05	0.0665069
1745.23	0.0622397
1746.42	0.0626949
1747.6	0.0622127
1748.79	0.0636906
1749.97	0.0659468
1751.16	0.0683147
1752.34	0.0692631
1753.53	0.0677369
1754.71	0.0631687
1755.9	0.0624108
1757.08	0.0586043
1758.27	0.0588615
1759.45	0.0564625
1760.64	0.055224
1761.82	0.0563712
1763.01	0.0557524
1764.19	0.0539848
1765.38	0.048278
1766.56	0.0438256
1767.75	0.0430292
1768.93	0.0420477
1770.12	0.0432912
1771.3	0.0475122
1772.49	0.0473908
1773.67	0.0458132
1774.86	0.0423148
1776.04	0.0396065
1777.23	0.0385936
1778.41	0.0352019
1779.6	0.0330412
1780.78	0.0351031
1781.97	0.0360927
1783.15	0.035317
1784.34	0.0324018
1785.52	0.0309066
1786.71	0.0275333
1787.89	0.0251551
1789.08	0.0221696
1790.26	0.0221642
1791.45	0.0230899
1792.63	0.0244825
1793.82	0.0248506
1795	0.023718
