405	-0.000288354
406.185	0.00448115
407.37	0.00689531
408.555	0.00800878
409.74	0.00840873
410.925	0.0093423
412.11	0.0106838
413.295	0.0121683
414.48	0.0135528
415.665	0.0131555
416.85	0.0144959
418.035	0.0160012
419.22	0.0149107
420.405	0.0140719
421.59	0.0131187
422.775	0.0113444
423.96	0.00916853
425.145	0.00788225
426.33	0.00793697
427.515	0.00818156
428.7	0.00812067
429.885	0.00804528
431.07	0.00634793
432.255	0.00456017
433.44	0.00307749
434.625	0.00260722
435.81	0.00180954
436.995	0.00049134
438.18	-0.000704349
439.365	-0.00176572
440.55	-0.0027442
441.735	-0.00426728
442.92	-0.00476714
444.105	-0.00362845
445.29	-0.00366605
446.475	-0.00483706
447.66	-0.00473554
448.845	-0.00482333
450.03	-0.00638666
451.215	-0.00819407
452.4	-0.00886584
453.585	-0.00891262
454.77	-0.00856937
455.955	-0.00725946
457.14	-0.00786206
458.325	-0.00612836
459.51	-0.00518055
460.695	-0.00378481
461.88	-0.00117631
463.065	0.0021448
464.25	0.00597686
465.435	0.0108523
466.62	0.0163529
467.805	0.0197418
468.99	0.0260699
470.175	0.0338442
471.36	0.0425836
472.545	0.0507159
473.73	0.0581245
474.915	0.0651075
476.1	0.073021
477.285	0.0814786
478.47	0.0893331
479.655	0.0989615
480.84	0.108484
482.025	0.116433
483.21	0.123521
484.395	0.130024
485.58	0.136233
486.765	0.142376
487.95	0.147174
489.135	0.151049
490.32	0.154164
491.505	0.155462
492.69	0.155375
493.875	0.155945
495.06	0.156055
496.245	0.154941
497.43	0.153512
498.615	0.151167
499.8	0.146924
500.985	0.142199
502.17	0.137721
503.355	0.132836
504.54	0.127296
505.725	0.122005
506.91	0.117478
508.095	0.113199
509.28	0.109112
510.465	0.105384
511.65	0.103691
512.835	0.101626
514.02	0.098633
515.205	0.0954395
516.39	0.0917761
517.575	0.088188
518.76	0.0851681
519.945	0.0822019
521.13	0.0795817
522.315	0.0774072
523.5	0.0763462
524.685	0.0751052
525.87	0.0731108
527.055	0.0708662
528.24	0.0672724
529.424	0.0639348
530.61	0.0612605
531.795	0.0583853
532.98	0.0553174
534.165	0.0529043
535.35	0.0514547
536.535	0.0516421
537.72	0.0516436
538.905	0.051373
540.09	0.0506325
541.275	0.0492408
542.46	0.047805
543.645	0.0455682
544.83	0.0434215
546.014	0.0423137
547.199	0.042512
548.384	0.0430929
549.569	0.0427908
550.754	0.042553
551.939	0.0430907
553.124	0.0428994
554.309	0.0423146
555.494	0.0404812
556.679	0.0372661
557.864	0.0344587
559.049	0.0324877
560.234	0.0311924
561.419	0.0298021
562.604	0.0281986
563.789	0.0268135
564.974	0.0257535
566.159	0.0257663
567.344	0.0259491
568.529	0.0257728
569.714	0.0237847
570.899	0.0217845
572.084	0.02048
573.269	0.0196668
574.454	0.0204378
575.639	0.022983
576.824	0.0259378
578.009	0.0282396
579.194	0.0298606
580.379	0.0309441
581.564	0.0318732
582.749	0.0332333
583.934	0.0340578
585.119	0.0325419
586.304	0.0304164
587.489	0.0288683
588.674	0.028997
589.859	0.0298287
591.044	0.031713
592.229	0.0334668
593.414	0.0331932
594.599	0.0306233
595.784	0.0272598
596.969	0.0243957
598.154	0.021498
599.339	0.018825
600.524	0.0166647
601.709	0.0150016
602.894	0.0147418
604.079	0.015394
605.264	0.0157187
606.449	0.0151983
607.634	0.0147813
608.819	0.0143882
610.004	0.0127255
611.189	0.00992552
612.374	0.00778174
613.559	0.00693845
614.744	0.00696544
615.929	0.00737316
617.114	0.00873945
618.299	0.0101997
619.484	0.0112926
620.669	0.0122411
621.854	0.0119669
623.039	0.0112434
624.224	0.0109685
625.409	0.0112803
626.594	0.010898
627.779	0.00897165
628.964	0.00671377
630.149	0.00583688
631.334	0.00630437
632.519	0.00679008
633.704	0.00802295
634.889	0.00833614
636.074	0.00633685
637.259	0.0041192
638.444	0.00212963
639.629	0.000687237
640.814	-0.000733059
641.999	-0.0030668
643.184	-0.00564981
644.369	-0.00713016
645.554	-0.00716323
646.739	-0.00652881
647.924	-0.00591291
649.109	-0.00528237
650.294	-0.00591798
651.479	-0.00714958
652.664	-0.00890243
653.849	-0.0100048
655.034	-0.00882055
656.219	-0.0073788
657.404	-0.00627034
658.589	-0.00589455
659.774	-0.00564597
660.959	-0.00449892
662.144	-0.00248453
663.329	-0.0013417
664.514	-0.00176056
665.699	-0.001902
666.884	-0.0013572
668.069	-0.00187067
669.254	-0.00260961
670.439	-0.00273223
671.624	-0.00300133
672.809	-0.00269305
673.994	-0.00237011
675.179	-0.00159584
676.364	-9.49887e-005
677.549	0.00157665
678.734	0.00322081
679.919	0.00445918
681.104	0.00444597
682.289	0.00372849
683.474	0.00348829
684.659	0.00371601
685.844	0.00472183
687.029	0.00655687
688.214	0.00877161
689.399	0.0105066
690.584	0.0112666
691.769	0.0113209
692.954	0.0106016
694.139	0.00891673
695.324	0.00663252
696.509	0.00428838
697.694	0.0033819
698.879	0.00355332
700.064	0.00385129
701.249	0.00415129
702.434	0.00473456
703.619	0.00544261
704.804	0.00546022
705.989	0.00423847
707.174	0.00287885
708.359	0.00264874
709.544	0.0022384
710.729	0.00107744
711.914	0.000800989
713.099	0.0013385
714.284	0.00192719
715.469	0.0028027
716.654	0.00262146
717.839	0.00156118
719.024	0.0009373
720.209	0.000988464
721.394	0.000740597
722.579	-8.712e-005
723.764	9.80361e-005
724.949	0.0023968
726.134	0.00488792
727.319	0.00616161
728.504	0.00829299
729.689	0.0110085
730.874	0.0130913
732.059	0.0148661
733.244	0.0167564
734.429	0.0185715
735.614	0.0206726
736.799	0.0238574
737.984	0.0269195
739.169	0.0286258
740.354	0.0302514
741.539	0.0324553
742.724	0.0337606
743.909	0.0338639
745.094	0.0340786
746.279	0.0344799
747.464	0.0343942
748.649	0.0342514
749.834	0.0339592
751.019	0.0335517
752.204	0.0331279
753.389	0.0321687
754.574	0.0305199
755.759	0.028033
756.944	0.0257784
758.129	0.0240764
759.314	0.0211794
760.499	0.0182969
761.684	0.0163028
762.869	0.0141111
764.054	0.0120579
765.239	0.0107572
766.424	0.00966218
767.609	0.00828493
768.794	0.00727046
769.979	0.00718727
771.164	0.00731821
772.349	0.00690473
773.534	0.00598946
774.719	0.00513804
775.904	0.00492535
777.089	0.00505165
778.274	0.00626292
779.459	0.00721037
780.644	0.0073684
781.829	0.00733783
783.014	0.00739476
784.199	0.00779071
785.384	0.0077555
786.569	0.00749931
787.754	0.00686064
788.939	0.00530081
790.124	0.00331664
791.309	0.00218186
792.494	0.0021548
793.679	0.00232946
794.864	0.00249663
796.049	0.00283015
797.234	0.00217362
798.419	0.000741662
799.604	-0.0003121
800.789	-0.000954897
801.974	-0.00211374
803.159	-0.00352776
804.344	-0.00365663
805.529	-0.0036626
806.714	-0.00428685
807.898	-0.00414889
809.083	-0.00326908
810.268	-0.00316535
811.454	-0.00371587
812.639	-0.00450735
813.824	-0.00552498
815.009	-0.00603267
816.194	-0.00622803
817.379	-0.00674515
818.564	-0.00741598
819.749	-0.00786661
820.934	-0.00768599
822.119	-0.00696246
823.304	-0.00668994
824.489	-0.00623437
825.673	-0.00474711
826.858	-0.00263607
828.043	-0.000265324
829.228	0.00222496
830.413	0.00486142
831.598	0.0080344
832.783	0.0115449
833.968	0.0154346
835.153	0.0204937
836.338	0.0273102
837.523	0.0349364
838.708	0.0415847
839.893	0.0464695
841.078	0.0517225
842.263	0.0571961
843.448	0.0622451
844.633	0.0667128
845.818	0.0705764
847.003	0.0742017
848.188	0.0781728
849.373	0.0823397
850.558	0.0858854
851.743	0.0885218
852.928	0.0906605
854.113	0.0926086
855.298	0.0943508
856.483	0.0966819
857.668	0.100365
858.853	0.104475
860.038	0.109101
861.223	0.115379
862.408	0.121673
863.593	0.126197
864.778	0.131448
865.963	0.139175
867.148	0.146827
868.333	0.154811
869.518	0.163299
870.703	0.171683
871.888	0.179549
873.073	0.186529
874.258	0.192565
875.443	0.197479
876.628	0.201594
877.813	0.204847
878.998	0.206796
880.183	0.208
881.368	0.210162
882.553	0.213236
883.738	0.214279
884.923	0.212508
886.108	0.210731
887.293	0.209243
888.478	0.206917
889.663	0.204596
890.848	0.203161
892.033	0.201346
893.218	0.199606
894.403	0.197832
895.588	0.195484
896.773	0.19293
897.958	0.191301
899.143	0.188923
900.328	0.184673
901.513	0.179926
902.698	0.17713
903.883	0.175065
905.068	0.171631
906.253	0.167764
907.438	0.164077
908.623	0.159838
909.808	0.15596
910.993	0.151814
912.178	0.146958
913.363	0.143102
914.548	0.140417
915.733	0.137596
916.918	0.134017
918.103	0.13119
919.288	0.129317
920.473	0.126921
921.658	0.124117
922.843	0.121703
924.028	0.120586
925.213	0.120325
926.398	0.120266
927.583	0.120282
928.768	0.119963
929.953	0.120424
931.138	0.122259
932.323	0.123603
933.508	0.124753
934.693	0.12616
935.878	0.129043
937.063	0.131038
938.248	0.133516
939.433	0.136566
940.618	0.138173
941.803	0.138052
942.988	0.138334
944.173	0.139045
945.358	0.139446
946.543	0.140518
947.728	0.140382
948.913	0.139207
950.098	0.138249
951.283	0.136514
952.468	0.135252
953.653	0.134556
954.838	0.13378
956.023	0.132381
957.208	0.131104
958.393	0.130254
959.578	0.129795
960.763	0.129571
961.948	0.128722
963.133	0.126821
964.318	0.12455
965.503	0.123355
966.688	0.1233
967.873	0.123162
969.058	0.123377
970.243	0.123931
971.428	0.123897
972.613	0.124288
973.798	0.12564
974.983	0.128125
976.168	0.130415
977.353	0.132532
978.538	0.134615
979.723	0.136924
980.908	0.14061
982.093	0.144319
983.278	0.147615
984.463	0.151664
985.648	0.154827
986.833	0.157438
988.018	0.159511
989.203	0.162994
990.388	0.165567
991.573	0.167822
992.758	0.168931
993.943	0.169089
995.128	0.169744
996.313	0.170442
997.498	0.170405
998.683	0.169325
999.868	0.167901
1001.05	0.165949
1002.24	0.163219
1003.42	0.161987
1004.61	0.160749
1005.79	0.159714
1006.98	0.157122
1008.16	0.152885
1009.35	0.14825
1010.53	0.14545
1011.72	0.144174
1012.9	0.143371
1014.09	0.143029
1015.27	0.144112
1016.46	0.146859
1017.64	0.152683
1018.83	0.160608
1020.01	0.168961
1021.2	0.178105
1022.38	0.188315
1023.57	0.19989
1024.75	0.214001
1025.94	0.230966
1027.12	0.24899
1028.31	0.266301
1029.49	0.282051
1030.68	0.297529
1031.86	0.313823
1033.05	0.329672
1034.23	0.343774
1035.42	0.354858
1036.6	0.362689
1037.79	0.367987
1038.97	0.370318
1040.16	0.369778
1041.34	0.366566
1042.53	0.359454
1043.71	0.348659
1044.9	0.336581
1046.08	0.323848
1047.27	0.309829
1048.45	0.295287
1049.64	0.280335
1050.82	0.264982
1052.01	0.249768
1053.19	0.235054
1054.38	0.221826
1055.56	0.210526
1056.75	0.200943
1057.93	0.192822
1059.12	0.186019
1060.3	0.180873
1061.49	0.17723
1062.67	0.174162
1063.86	0.172128
1065.04	0.17153
1066.23	0.171461
1067.41	0.171589
1068.6	0.172127
1069.78	0.172388
1070.97	0.173145
1072.15	0.173163
1073.34	0.17221
1074.52	0.170809
1075.71	0.170587
1076.89	0.170464
1078.08	0.170968
1079.26	0.173178
1080.45	0.175722
1081.63	0.176656
1082.82	0.176371
1084	0.176559
1085.19	0.176317
1086.37	0.174793
1087.56	0.17514
1088.74	0.17441
1089.93	0.175783
1091.11	0.176551
1092.3	0.178353
1093.48	0.178061
1094.67	0.178698
1095.85	0.178401
1097.04	0.177335
1098.22	0.176406
1099.41	0.175931
1100.59	0.176523
1101.78	0.175318
1102.96	0.176203
1104.15	0.176193
1105.33	0.175356
1106.52	0.174916
1107.7	0.172516
1108.89	0.170328
1110.07	0.168051
1111.26	0.167475
1112.44	0.167318
1113.63	0.165836
1114.81	0.163941
1116	0.162041
1117.18	0.160263
1118.37	0.157143
1119.55	0.157999
1120.74	0.15377
1121.92	0.151019
1123.11	0.146307
1124.29	0.14366
1125.48	0.14186
1126.66	0.140387
1127.85	0.140542
1129.03	0.139079
1130.22	0.136428
1131.4	0.136333
1132.59	0.13587
1133.77	0.133335
1134.96	0.132021
1136.14	0.130718
1137.33	0.127915
1138.51	0.127447
1139.7	0.129026
1140.88	0.131251
1142.07	0.132676
1143.25	0.13363
1144.44	0.134224
1145.62	0.133835
1146.81	0.133852
1147.99	0.134332
1149.18	0.13466
1150.36	0.135765
1151.55	0.137993
1152.73	0.139552
1153.92	0.144663
1155.1	0.149081
1156.29	0.153625
1157.47	0.156672
1158.66	0.160724
1159.84	0.165569
1161.03	0.169285
1162.21	0.175862
1163.4	0.183711
1164.58	0.194269
1165.77	0.207135
1166.95	0.221439
1168.14	0.239576
1169.32	0.262802
1170.51	0.289904
1171.69	0.319219
1172.88	0.35515
1174.06	0.397669
1175.25	0.445807
1176.43	0.497053
1177.62	0.551082
1178.8	0.609491
1179.99	0.668183
1181.17	0.724046
1182.36	0.776291
1183.54	0.825997
1184.73	0.870154
1185.91	0.904077
1187.1	0.928246
1188.28	0.943279
1189.47	0.948225
1190.65	0.939953
1191.84	0.91859
1193.02	0.887308
1194.21	0.847251
1195.39	0.799542
1196.58	0.745626
1197.76	0.687782
1198.95	0.62878
1200.13	0.568432
1201.32	0.508274
1202.5	0.45253
1203.69	0.402341
1204.87	0.357015
1206.06	0.316344
1207.24	0.281934
1208.43	0.254906
1209.61	0.233595
1210.8	0.216628
1211.98	0.206364
1213.17	0.19935
1214.35	0.195667
1215.54	0.194259
1216.72	0.195068
1217.91	0.198238
1219.09	0.201239
1220.28	0.201684
1221.46	0.201382
1222.65	0.200953
1223.83	0.199274
1225.02	0.195808
1226.2	0.19196
1227.39	0.186946
1228.57	0.180015
1229.76	0.172272
1230.94	0.164924
1232.13	0.155298
1233.31	0.144371
1234.5	0.135188
1235.68	0.12473
1236.87	0.114486
1238.05	0.104449
1239.24	0.0941395
1240.42	0.0838609
1241.61	0.0750222
1242.79	0.0658807
1243.98	0.0570561
1245.16	0.050048
1246.35	0.0445561
1247.53	0.0388001
1248.72	0.0317872
1249.9	0.0254882
1251.09	0.019958
1252.27	0.0144743
1253.46	0.00929206
1254.64	0.00429212
1255.83	0.000885461
1257.01	-0.00255137
1258.2	-0.00557005
1259.38	-0.00713746
1260.57	-0.00768712
1261.75	-0.00850219
1262.94	-0.00986156
1264.12	-0.0105657
1265.31	-0.00973723
1266.49	-0.00810564
1267.68	-0.00634418
1268.86	-0.00379132
1270.05	-0.000921954
1271.23	0.00252135
1272.42	0.00756889
1273.6	0.0128349
1274.79	0.0184651
1275.97	0.0243319
1277.16	0.0294549
1278.34	0.0343737
1279.53	0.0410634
1280.71	0.0484734
1281.9	0.0542506
1283.08	0.0607847
1284.27	0.0676507
1285.45	0.0742162
1286.64	0.0792218
1287.82	0.0849839
1289.01	0.0916095
1290.19	0.0957142
1291.38	0.101835
1292.56	0.107684
1293.75	0.112276
1294.93	0.117541
1296.12	0.122265
1297.3	0.125875
1298.49	0.12884
1299.67	0.129754
1300.86	0.129638
1302.04	0.129914
1303.23	0.130133
1304.41	0.129207
1305.6	0.127508
1306.78	0.124679
1307.97	0.120989
1309.15	0.117003
1310.34	0.113074
1311.52	0.108565
1312.71	0.103865
1313.89	0.099741
1315.08	0.0961497
1316.26	0.0941418
1317.45	0.0927233
1318.63	0.0907809
1319.82	0.0881715
1321	0.0865634
1322.19	0.0847315
1323.37	0.0826502
1324.56	0.0826026
1325.74	0.083103
1326.93	0.0840638
1328.11	0.0850177
1329.3	0.0871077
1330.48	0.0872731
1331.67	0.0867958
1332.85	0.0843966
1334.04	0.0813523
1335.22	0.0799144
1336.41	0.0788749
1337.59	0.0781189
1338.78	0.0770062
1339.96	0.0748317
1341.15	0.073473
1342.33	0.0722006
1343.52	0.0696271
1344.7	0.0654681
1345.89	0.0617973
1347.07	0.0594046
1348.26	0.0570096
1349.44	0.0548395
1350.63	0.0536408
1351.81	0.0519346
1353	0.0495175
1354.18	0.0469549
1355.37	0.0447568
1356.55	0.0440345
1357.74	0.0427984
1358.92	0.0409853
1360.11	0.0395075
1361.29	0.0389279
1362.48	0.0385672
1363.66	0.0373756
1364.85	0.0374603
1366.03	0.0373103
1367.22	0.0378734
1368.4	0.0385077
1369.59	0.0400845
1370.77	0.0425561
1371.96	0.0451724
1373.14	0.0465968
1374.33	0.0472323
1375.51	0.0472949
1376.7	0.0461847
1377.88	0.0451172
1379.07	0.0447475
1380.25	0.0445041
1381.44	0.044175
1382.62	0.0442953
1383.81	0.044097
1384.99	0.0431893
1386.18	0.0421271
1387.36	0.0416562
1388.55	0.0401744
1389.73	0.0381506
1390.92	0.0361592
1392.1	0.0348679
1393.29	0.0353143
1394.47	0.0371498
1395.66	0.0383327
1396.84	0.0388886
1398.03	0.0383969
1399.21	0.0372148
1400.4	0.0369179
1401.58	0.0375114
1402.77	0.0376379
1403.95	0.0368961
1405.14	0.0366758
1406.32	0.0371747
1407.51	0.0381988
1408.69	0.039937
1409.88	0.0409319
1411.06	0.0407364
1412.25	0.0406353
1413.43	0.0412326
1414.62	0.0422588
1415.8	0.0438573
1416.99	0.0457207
1418.17	0.0458539
1419.36	0.0456091
1420.54	0.0460429
1421.73	0.0451266
1422.91	0.0447085
1424.1	0.0451401
1425.28	0.0456672
1426.47	0.046882
1427.65	0.0481457
1428.84	0.0488859
1430.02	0.0493083
1431.21	0.049214
1432.39	0.0492518
1433.58	0.0493444
1434.76	0.049491
1435.95	0.0501889
1437.13	0.0516024
1438.32	0.0535398
1439.5	0.0555752
1440.69	0.0583256
1441.87	0.0615725
1443.06	0.0639471
1444.24	0.06692
1445.43	0.0716994
1446.61	0.0772401
1447.8	0.0849339
1448.98	0.0939379
1450.17	0.102602
1451.35	0.111878
1452.54	0.122455
1453.72	0.132996
1454.91	0.142785
1456.09	0.152594
1457.28	0.16208
1458.46	0.171328
1459.65	0.181362
1460.83	0.191216
1462.02	0.199858
1463.2	0.208063
1464.39	0.215019
1465.57	0.220723
1466.76	0.225553
1467.94	0.229735
1469.13	0.233351
1470.31	0.236224
1471.5	0.238484
1472.68	0.240563
1473.87	0.242882
1475.05	0.24487
1476.24	0.245324
1477.42	0.244667
1478.61	0.243991
1479.79	0.24188
1480.98	0.238856
1482.16	0.23564
1483.35	0.231739
1484.53	0.227312
1485.72	0.222712
1486.9	0.217665
1488.09	0.212984
1489.27	0.208627
1490.46	0.20339
1491.64	0.196625
1492.83	0.189596
1494.01	0.183035
1495.2	0.175882
1496.38	0.169301
1497.57	0.163856
1498.75	0.159031
1499.94	0.154639
1501.12	0.15102
1502.31	0.147373
1503.49	0.144177
1504.68	0.14334
1505.86	0.144307
1507.05	0.145921
1508.23	0.148998
1509.42	0.154125
1510.6	0.162356
1511.79	0.173498
1512.97	0.187521
1514.16	0.204745
1515.34	0.224477
1516.53	0.247373
1517.71	0.27446
1518.9	0.307169
1520.08	0.345727
1521.27	0.387299
1522.45	0.430729
1523.64	0.477162
1524.82	0.526708
1526.01	0.578446
1527.19	0.630188
1528.38	0.682426
1529.56	0.734475
1530.75	0.783676
1531.93	0.828092
1533.12	0.867079
1534.3	0.898909
1535.49	0.920344
1536.67	0.930109
1537.86	0.931282
1539.04	0.924977
1540.23	0.908697
1541.41	0.882668
1542.6	0.848426
1543.78	0.807256
1544.97	0.759529
1546.15	0.705759
1547.34	0.649058
1548.52	0.591777
1549.71	0.534115
1550.89	0.477527
1552.08	0.424667
1553.26	0.37673
1554.45	0.331988
1555.63	0.289405
1556.82	0.252477
1558	0.221718
1559.19	0.195566
1560.37	0.173275
1561.56	0.154423
1562.74	0.138698
1563.93	0.125144
1565.11	0.112628
1566.3	0.103074
1567.48	0.0959677
1568.67	0.0898347
1569.85	0.0847693
1571.04	0.0802914
1572.22	0.0767612
1573.41	0.0733259
1574.59	0.069657
1575.78	0.0665169
1576.96	0.0638674
1578.15	0.0616507
1579.33	0.0595979
1580.52	0.0577847
1581.7	0.0576168
1582.89	0.0570404
1584.07	0.0554954
1585.26	0.0541084
1586.44	0.0534046
1587.63	0.0523277
1588.81	0.0512124
1590	0.0505578
1591.18	0.049774
1592.37	0.0484065
1593.55	0.0470035
1594.74	0.0458499
1595.92	0.0454242
1597.11	0.0450061
1598.29	0.0432987
1599.48	0.0421986
1600.66	0.0423284
1601.85	0.0413809
1603.03	0.0393639
1604.22	0.0379148
1605.4	0.0367879
1606.59	0.035784
1607.77	0.0351649
1608.96	0.0343167
1610.14	0.0334507
1611.33	0.0323226
1612.51	0.0302504
1613.7	0.0273688
1614.88	0.025134
1616.07	0.0229841
1617.25	0.0205268
1618.44	0.0188592
1619.62	0.0172344
1620.81	0.0151337
1621.99	0.0129266
1623.18	0.0103377
1624.36	0.00751269
1625.55	0.00501493
1626.73	0.00221144
1627.92	-0.000579956
1629.1	-0.002306
1630.29	-0.00343895
1631.47	-0.00506705
1632.66	-0.00659003
1633.84	-0.00746045
1635.03	-0.00815729
1636.21	-0.00887015
1637.4	-0.00923357
1638.58	-0.00882232
1639.77	-0.00842758
1640.95	-0.00780202
1642.14	-0.00673502
1643.32	-0.00493585
1644.51	-0.00321269
1645.69	-0.00140132
1646.88	0.00162351
1648.06	0.00547944
1649.25	0.00914936
1650.43	0.0118338
1651.62	0.0152433
1652.8	0.0200469
1653.99	0.0248174
1655.17	0.0282057
1656.36	0.0321598
1657.54	0.0357758
1658.73	0.0394137
1659.91	0.0425814
1661.1	0.0458135
1662.28	0.0487897
1663.47	0.0512335
1664.65	0.0530334
1665.84	0.0539023
1667.02	0.055347
1668.21	0.0555594
1669.39	0.0544247
1670.58	0.0527926
1671.76	0.0516229
1672.95	0.04986
1674.13	0.0476178
1675.32	0.0455579
1676.5	0.0435199
1677.69	0.0411323
1678.87	0.0380267
1680.06	0.0344365
1681.24	0.0307947
1682.43	0.0282863
1683.61	0.0258199
1684.8	0.0236117
1685.98	0.0223109
1687.17	0.0207828
1688.35	0.0195802
1689.54	0.0196894
1690.72	0.0209056
1691.91	0.0210337
1693.09	0.020262
1694.28	0.0193824
1695.46	0.0200045
1696.65	0.0204215
1697.83	0.0196351
1699.02	0.0181544
1700.2	0.0166597
1701.39	0.0161049
1702.57	0.0152472
1703.76	0.015208
1704.94	0.0152714
1706.13	0.0141944
1707.31	0.0128095
1708.5	0.0121302
1709.68	0.01277
1710.87	0.0142135
1712.05	0.0148074
1713.24	0.0156352
1714.42	0.0170016
1715.61	0.0184426
1716.79	0.0200597
1717.98	0.0210882
1719.16	0.0223878
1720.35	0.0233197
1721.53	0.0234008
1722.72	0.0234895
1723.9	0.0241416
1725.09	0.0240932
1726.27	0.0230536
1727.46	0.0221908
1728.64	0.0213971
1729.83	0.0217032
1731.01	0.0221471
1732.2	0.0218199
1733.38	0.0208886
1734.57	0.0200088
1735.75	0.0196078
1736.94	0.019374
1738.12	0.0203872
1739.31	0.0205917
1740.49	0.0206412
1741.68	0.0211404
1742.86	0.0216568
1744.05	0.0219015
1745.23	0.0217594
1746.42	0.0215969
1747.6	0.0215038
1748.79	0.0215883
1749.97	0.0221054
1751.16	0.0217581
1752.34	0.0205865
1753.53	0.0190559
1754.71	0.0179674
1755.9	0.0164942
1757.08	0.0144121
1758.27	0.0127909
1759.45	0.0111454
1760.64	0.00914474
1761.82	0.00711802
1763.01	0.00539917
1764.19	0.00457125
1765.38	0.00338864
1766.56	0.00257081
1767.75	0.00115069
1768.93	0.0009407
1770.12	0.000646211
1771.3	-0.00104577
1772.49	-0.00162217
1773.67	-0.00170059
1774.86	-0.00146253
1776.04	-0.000945708
1777.23	-0.000746331
1778.41	-0.000471897
1779.6	-0.00119416
1780.78	-0.00183947
1781.97	-0.00306797
1783.15	-0.00427904
1784.34	-0.00464725
1785.52	-0.00547699
1786.71	-0.00593352
1787.89	-0.00591703
1789.08	-0.00588354
1790.26	-0.00628625
1791.45	-0.00667795
1792.63	-0.00731054
1793.82	-0.00744194
1795	-0.0073709
