405	0.229992
406.185	0.240927
407.37	0.246754
408.555	0.250571
409.74	0.25117
410.925	0.250513
412.11	0.248696
413.295	0.245503
414.48	0.241372
415.665	0.233931
416.85	0.225826
418.035	0.221202
419.22	0.210812
420.405	0.197338
421.59	0.176637
422.775	0.15673
423.96	0.143345
425.145	0.135754
426.33	0.129902
427.515	0.121861
428.7	0.110665
429.885	0.102596
431.07	0.0844753
432.255	0.0751843
433.44	0.0630117
434.625	0.0534027
435.81	0.045177
436.995	0.0376964
438.18	0.0336283
439.365	0.0311644
440.55	0.0240184
441.735	0.0256227
442.92	0.0245283
444.105	0.0173474
445.29	0.0135271
446.475	0.00620904
447.66	-0.00345225
448.845	-0.0100453
450.03	-0.00872611
451.215	-0.00438649
452.4	-0.00427404
453.585	0.00237894
454.77	0.013058
455.955	0.0259906
457.14	0.0331075
458.325	0.0454028
459.51	0.0626597
460.695	0.0802263
461.88	0.101382
463.065	0.127098
464.25	0.151402
465.435	0.172104
466.62	0.199371
467.805	0.237125
468.99	0.276146
470.175	0.31245
471.36	0.349158
472.545	0.386786
473.73	0.423034
474.915	0.458166
476.1	0.497128
477.285	0.543863
478.47	0.592741
479.655	0.631378
480.84	0.663062
482.025	0.693358
483.21	0.720937
484.395	0.743484
485.58	0.766788
486.765	0.789732
487.95	0.806929
489.135	0.817761
490.32	0.826926
491.505	0.834522
492.69	0.83333
493.875	0.824563
495.06	0.812914
496.245	0.7949
497.43	0.76322
498.615	0.74011
499.8	0.721517
500.985	0.700327
502.17	0.677963
503.355	0.657061
504.54	0.634204
505.725	0.603809
506.91	0.568282
508.095	0.538541
509.28	0.511021
510.465	0.474854
511.65	0.447728
512.835	0.42527
514.02	0.402726
515.205	0.381363
516.39	0.36309
517.575	0.346397
518.76	0.330107
519.945	0.315333
521.13	0.300704
522.315	0.283418
523.5	0.26729
524.685	0.262892
525.87	0.256459
527.055	0.249382
528.24	0.246189
529.424	0.249727
530.61	0.254912
531.795	0.257518
532.98	0.256652
534.165	0.251726
535.35	0.242957
536.535	0.232489
537.72	0.222873
538.905	0.221661
540.09	0.217976
541.275	0.218966
542.46	0.223271
543.645	0.225818
544.83	0.230529
546.014	0.236155
547.199	0.23857
548.384	0.237955
549.569	0.238172
550.754	0.241372
551.939	0.238032
553.124	0.240299
554.309	0.247568
555.494	0.256741
556.679	0.264341
557.864	0.264011
559.049	0.263701
560.234	0.263162
561.419	0.261125
562.604	0.259019
563.789	0.258121
564.974	0.258119
566.159	0.255357
567.344	0.248984
568.529	0.24086
569.714	0.229503
570.899	0.230839
572.084	0.230933
573.269	0.227523
574.454	0.224215
575.639	0.222453
576.824	0.219478
578.009	0.214758
579.194	0.210921
580.379	0.206988
581.564	0.19905
582.749	0.191567
583.934	0.186666
585.119	0.182638
586.304	0.178379
587.489	0.179004
588.674	0.177431
589.859	0.175853
591.044	0.176414
592.229	0.178887
593.414	0.177726
594.599	0.171256
595.784	0.167119
596.969	0.169715
598.154	0.17307
599.339	0.172821
600.524	0.173273
601.709	0.173868
602.894	0.167974
604.079	0.163967
605.264	0.162162
606.449	0.157135
607.634	0.152551
608.819	0.14686
610.004	0.138734
611.189	0.130626
612.374	0.123656
613.559	0.117926
614.744	0.110858
615.929	0.102891
617.114	0.102689
618.299	0.100845
619.484	0.105663
620.669	0.108285
621.854	0.109488
623.039	0.109261
624.224	0.111449
625.409	0.115606
626.594	0.118084
627.779	0.12072
628.964	0.125694
630.149	0.126222
631.334	0.119768
632.519	0.117137
633.704	0.115441
634.889	0.112723
636.074	0.102729
637.259	0.093489
638.444	0.0808388
639.629	0.0667435
640.814	0.0540614
641.999	0.0450966
643.184	0.0349862
644.369	0.0265794
645.554	0.0221842
646.739	0.0154539
647.924	0.00748225
649.109	0.00391429
650.294	0.00789834
651.479	0.00858402
652.664	0.00881209
653.849	0.00884734
655.034	0.00639594
656.219	0.00598965
657.404	0.00615902
658.589	0.00711494
659.774	0.00776937
660.959	0.00680578
662.144	0.0125806
663.329	0.0197209
664.514	0.020045
665.699	0.0232872
666.884	0.0250769
668.069	0.0268063
669.254	0.0294306
670.439	0.0326025
671.624	0.038048
672.809	0.0460445
673.994	0.0546113
675.179	0.0646622
676.364	0.0806135
677.549	0.096642
678.734	0.11268
679.919	0.128592
681.104	0.136385
682.289	0.139713
683.474	0.147386
684.659	0.15525
685.844	0.16486
687.029	0.17645
688.214	0.187464
689.399	0.193243
690.584	0.196876
691.769	0.199282
692.954	0.201028
694.139	0.197221
695.324	0.19341
696.509	0.193402
697.694	0.190425
698.879	0.182035
700.064	0.170261
701.249	0.156063
702.434	0.141657
703.619	0.129643
704.804	0.119901
705.989	0.113504
707.174	0.107249
708.359	0.0983356
709.544	0.0889786
710.729	0.0762461
711.914	0.0685347
713.099	0.0670831
714.284	0.0566134
715.469	0.039842
716.654	0.0258855
717.839	0.017313
719.024	0.0141386
720.209	0.0149546
721.394	0.0176625
722.579	0.0193297
723.764	0.0141319
724.949	0.00310317
726.134	-0.00203734
727.319	-0.00276465
728.504	-0.00181961
729.689	9.61825e-005
730.874	0.00127643
732.059	0.00306838
733.244	0.00788301
734.429	0.0170643
735.614	0.0267514
736.799	0.0338485
737.984	0.041156
739.169	0.0490782
740.354	0.0508335
741.539	0.0537072
742.724	0.062283
743.909	0.0685325
745.094	0.0699872
746.279	0.0716732
747.464	0.073296
748.649	0.073236
749.834	0.0681023
751.019	0.0638574
752.204	0.0637337
753.389	0.0656369
754.574	0.0682377
755.759	0.0675931
756.944	0.0631931
758.129	0.0596472
759.314	0.0614054
760.499	0.0595184
761.684	0.0542458
762.869	0.0528693
764.054	0.0582455
765.239	0.0644735
766.424	0.067526
767.609	0.0701516
768.794	0.0736354
769.979	0.0748071
771.164	0.0728295
772.349	0.0695573
773.534	0.0650814
774.719	0.0614849
775.904	0.0623554
777.089	0.0615424
778.274	0.0600155
779.459	0.0583161
780.644	0.0610256
781.829	0.0591001
783.014	0.0554365
784.199	0.0554188
785.384	0.0609719
786.569	0.0663684
787.754	0.0684566
788.939	0.0691343
790.124	0.0687716
791.309	0.0678383
792.494	0.0694543
793.679	0.0711521
794.864	0.0679712
796.049	0.0638516
797.234	0.0597643
798.419	0.0537041
799.604	0.051484
800.789	0.0456174
801.974	0.0405754
803.159	0.0327855
804.344	0.0219996
805.529	0.0134657
806.714	0.00876646
807.898	0.00792433
809.083	0.00977653
810.268	0.00900344
811.454	0.00412585
812.639	0.0020162
813.824	0.00109704
815.009	-0.00174041
816.194	0.00191127
817.379	0.00676892
818.564	0.0092577
819.749	0.0122328
820.934	0.0141005
822.119	0.0178939
823.304	0.0224637
824.489	0.0312017
825.673	0.043284
826.858	0.0527163
828.043	0.058958
829.228	0.0721145
830.413	0.0952545
831.598	0.120839
832.783	0.149923
833.968	0.179356
835.153	0.201757
836.338	0.231806
837.523	0.260322
838.708	0.285923
839.893	0.307256
841.078	0.334695
842.263	0.364199
843.448	0.384161
844.633	0.398485
845.818	0.411263
847.003	0.420866
848.188	0.426801
849.373	0.431708
850.558	0.437387
851.743	0.441968
852.928	0.446165
854.113	0.449603
855.298	0.453762
856.483	0.468198
857.668	0.487995
858.853	0.509
860.038	0.520711
861.223	0.533774
862.408	0.561118
863.593	0.594311
864.778	0.629199
865.963	0.668272
867.148	0.705579
868.333	0.73605
869.518	0.763904
870.703	0.793481
871.888	0.826706
873.073	0.861085
874.258	0.888246
875.443	0.907483
876.628	0.92169
877.813	0.933909
878.998	0.943733
880.183	0.948225
881.368	0.945609
882.553	0.93744
883.738	0.925799
884.923	0.910581
886.108	0.893755
887.293	0.87623
888.478	0.857601
889.663	0.835622
890.848	0.810071
892.033	0.778344
893.218	0.750009
894.403	0.723327
895.588	0.697777
896.773	0.673614
897.958	0.646852
899.143	0.617665
900.328	0.588876
901.513	0.564171
902.698	0.541359
903.883	0.521159
905.068	0.501631
906.253	0.483857
907.438	0.468837
908.623	0.450466
909.808	0.434215
910.993	0.420864
912.178	0.406929
913.363	0.390856
914.548	0.375044
915.733	0.363771
916.918	0.357323
918.103	0.354562
919.288	0.353616
920.473	0.352469
921.658	0.35351
922.843	0.35832
924.028	0.364343
925.213	0.369198
926.398	0.373409
927.583	0.38206
928.768	0.392919
929.953	0.403852
931.138	0.418736
932.323	0.437414
933.508	0.457091
934.693	0.478213
935.878	0.5001
937.063	0.517383
938.248	0.536361
939.433	0.553214
940.618	0.565948
941.803	0.578753
942.988	0.594171
944.173	0.60683
945.358	0.613957
946.543	0.615838
947.728	0.616502
948.913	0.620271
950.098	0.625212
951.283	0.627551
952.468	0.622023
953.653	0.610376
954.838	0.598724
956.023	0.587788
957.208	0.578885
958.393	0.571399
959.578	0.562023
960.763	0.546037
961.948	0.52731
963.133	0.510719
964.318	0.496864
965.503	0.483693
966.688	0.466257
967.873	0.444284
969.058	0.421585
970.243	0.400985
971.428	0.383243
972.613	0.363868
973.798	0.34196
974.983	0.32133
976.168	0.300752
977.353	0.279518
978.538	0.262967
979.723	0.252131
980.908	0.244363
982.093	0.238414
983.278	0.231607
984.463	0.225754
985.648	0.223231
986.833	0.22219
988.018	0.222529
989.203	0.22204
990.388	0.223748
991.573	0.234237
992.758	0.244216
993.943	0.245936
995.128	0.247459
996.313	0.245122
997.498	0.243925
998.683	0.248744
999.868	0.256421
1001.05	0.264261
1002.24	0.270714
1003.42	0.273901
1004.61	0.276631
1005.79	0.279626
1006.98	0.284115
1008.16	0.29194
1009.35	0.294928
1010.53	0.292937
1011.72	0.292575
1012.9	0.29358
1014.09	0.298344
1015.27	0.304327
1016.46	0.307074
1017.64	0.304031
1018.83	0.296339
1020.01	0.287877
1021.2	0.283876
1022.38	0.283928
1023.57	0.282633
1024.75	0.282785
1025.94	0.284205
1027.12	0.28481
1028.31	0.287888
1029.49	0.291102
1030.68	0.291901
1031.86	0.291398
1033.05	0.289071
1034.23	0.286143
1035.42	0.287156
1036.6	0.294607
1037.79	0.305633
1038.97	0.314153
1040.16	0.315511
1041.34	0.312584
1042.53	0.309126
1043.71	0.305213
1044.9	0.304797
1046.08	0.307697
1047.27	0.31329
1048.45	0.325686
1049.64	0.342432
1050.82	0.362106
1052.01	0.383496
1053.19	0.404115
1054.38	0.420311
1055.56	0.431721
1056.75	0.444372
1057.93	0.462832
1059.12	0.488225
1060.3	0.517227
1061.49	0.544315
1062.67	0.569842
1063.86	0.597441
1065.04	0.627862
1066.23	0.657833
1067.41	0.684888
1068.6	0.706323
1069.78	0.725502
1070.97	0.74324
1072.15	0.760745
1073.34	0.780223
1074.52	0.79855
1075.71	0.814239
1076.89	0.828972
1078.08	0.842774
1079.26	0.854361
1080.45	0.862377
1081.63	0.864817
1082.82	0.864843
1084	0.862915
1085.19	0.858977
1086.37	0.853936
1087.56	0.844392
1088.74	0.830766
1089.93	0.816574
1091.11	0.804134
1092.3	0.792127
1093.48	0.780968
1094.67	0.767072
1095.85	0.747283
1097.04	0.726679
1098.22	0.707438
1099.41	0.690155
1100.59	0.67218
1101.78	0.651947
1102.96	0.631454
1104.15	0.615388
1105.33	0.60446
1106.52	0.595659
1107.7	0.589228
1108.89	0.57996
1110.07	0.565107
1111.26	0.550305
1112.44	0.538722
1113.63	0.527434
1114.81	0.516641
1116	0.511326
1117.18	0.502417
1118.37	0.489248
1119.55	0.483531
1120.74	0.480726
1121.92	0.471984
1123.11	0.456649
1124.29	0.441802
1125.48	0.430343
1126.66	0.422657
1127.85	0.420085
1129.03	0.419887
1130.22	0.419194
1131.4	0.421041
1132.59	0.425127
1133.77	0.423658
1134.96	0.426045
1136.14	0.432597
1137.33	0.430073
1138.51	0.420316
1139.7	0.414674
1140.88	0.419562
1142.07	0.423021
1143.25	0.422498
1144.44	0.416487
1145.62	0.406193
1146.81	0.393046
1147.99	0.378963
1149.18	0.368514
1150.36	0.356056
1151.55	0.341742
1152.73	0.325592
1153.92	0.306921
1155.1	0.287881
1156.29	0.271922
1157.47	0.254
1158.66	0.232323
1159.84	0.213077
1161.03	0.191432
1162.21	0.171502
1163.4	0.154462
1164.58	0.136555
1165.77	0.119189
1166.95	0.100685
1168.14	0.0858543
1169.32	0.0728171
1170.51	0.0577766
1171.69	0.0463486
1172.88	0.0385875
1174.06	0.033532
1175.25	0.0340951
1176.43	0.0357974
1177.62	0.0327865
1178.8	0.0295098
1179.99	0.0280183
1181.17	0.0282949
1182.36	0.0282144
1183.54	0.0273754
1184.73	0.0265245
1185.91	0.023832
1187.1	0.0234759
1188.28	0.0236302
1189.47	0.0194712
1190.65	0.0130487
1191.84	0.00713078
1193.02	0.00156039
1194.21	-0.00276425
1195.39	-0.0057587
1196.58	-0.00821213
1197.76	-0.0068038
1198.95	-0.00263811
1200.13	0.00328697
1201.32	0.00790211
1202.5	0.00958705
1203.69	0.0121152
1204.87	0.0149736
1206.06	0.0187813
1207.24	0.0246064
1208.43	0.0314119
1209.61	0.0389728
1210.8	0.0449547
1211.98	0.0461082
1213.17	0.0493447
1214.35	0.0555853
1215.54	0.0594306
1216.72	0.0626822
1217.91	0.0647413
1219.09	0.0660215
1220.28	0.0703468
1221.46	0.0730815
1222.65	0.07647
1223.83	0.0817466
1225.02	0.0888951
1226.2	0.0953531
1227.39	0.0942983
1228.57	0.092031
1229.76	0.0940415
1230.94	0.0955
1232.13	0.0928603
1233.31	0.0880538
1234.5	0.0845446
1235.68	0.0837866
1236.87	0.0856077
1238.05	0.085097
1239.24	0.0856204
1240.42	0.0842301
1241.61	0.0794406
1242.79	0.0725833
1243.98	0.0661198
1245.16	0.0652266
1246.35	0.0706937
1247.53	0.076306
1248.72	0.0775165
1249.9	0.0796784
1251.09	0.0834817
1252.27	0.0833542
1253.46	0.0819125
1254.64	0.0822901
1255.83	0.0844551
1257.01	0.0894234
1258.2	0.097415
1259.38	0.103993
1260.57	0.110637
1261.75	0.119517
1262.94	0.12523
1264.12	0.127032
1265.31	0.13169
1266.49	0.138854
1267.68	0.147463
1268.86	0.157971
1270.05	0.167561
1271.23	0.175028
1272.42	0.18307
1273.6	0.189355
1274.79	0.188828
1275.97	0.187723
1277.16	0.191599
1278.34	0.195671
1279.53	0.196513
1280.71	0.198082
1281.9	0.198426
1283.08	0.199232
1284.27	0.200829
1285.45	0.197202
1286.64	0.190589
1287.82	0.190263
1289.01	0.193615
1290.19	0.193898
1291.38	0.193957
1292.56	0.198346
1293.75	0.202789
1294.93	0.208902
1296.12	0.210688
1297.3	0.21119
1298.49	0.210605
1299.67	0.210787
1300.86	0.215124
1302.04	0.218857
1303.23	0.226206
1304.41	0.234049
1305.6	0.236451
1306.78	0.236782
1307.97	0.237817
1309.15	0.237587
1310.34	0.233367
1311.52	0.226064
1312.71	0.22139
1313.89	0.222092
1315.08	0.223699
1316.26	0.227564
1317.45	0.230949
1318.63	0.23296
1319.82	0.229655
1321	0.222676
1322.19	0.217159
1323.37	0.211554
1324.56	0.206352
1325.74	0.205246
1326.93	0.206962
1328.11	0.212939
1329.3	0.224692
1330.48	0.229659
1331.67	0.232203
1332.85	0.233744
1334.04	0.237066
1335.22	0.238989
1336.41	0.238853
1337.59	0.246529
1338.78	0.257151
1339.96	0.270939
1341.15	0.283788
1342.33	0.292623
1343.52	0.295213
1344.7	0.29535
1345.89	0.293024
1347.07	0.289174
1348.26	0.285659
1349.44	0.282187
1350.63	0.276607
1351.81	0.270876
1353	0.271934
1354.18	0.271827
1355.37	0.26736
1356.55	0.261849
1357.74	0.256482
1358.92	0.251052
1360.11	0.24477
1361.29	0.240699
1362.48	0.238543
1363.66	0.2383
1364.85	0.237085
1366.03	0.240136
1367.22	0.245209
1368.4	0.248113
1369.59	0.249286
1370.77	0.246615
1371.96	0.244927
1373.14	0.245733
1374.33	0.245039
1375.51	0.245364
1376.7	0.249408
1377.88	0.256542
1379.07	0.263255
1380.25	0.264139
1381.44	0.261449
1382.62	0.259715
1383.81	0.258069
1384.99	0.256234
1386.18	0.252217
1387.36	0.254864
1388.55	0.25969
1389.73	0.261188
1390.92	0.260289
1392.1	0.258781
1393.29	0.254923
1394.47	0.253387
1395.66	0.253405
1396.84	0.250633
1398.03	0.25062
1399.21	0.254183
1400.4	0.258819
1401.58	0.263921
1402.77	0.268003
1403.95	0.270737
1405.14	0.271023
1406.32	0.274089
1407.51	0.276973
1408.69	0.276601
1409.88	0.277298
1411.06	0.274475
1412.25	0.271064
1413.43	0.273446
1414.62	0.278203
1415.8	0.280813
1416.99	0.280406
1418.17	0.285403
1419.36	0.291995
1420.54	0.290679
1421.73	0.288927
1422.91	0.290593
1424.1	0.292011
1425.28	0.296957
1426.47	0.30369
1427.65	0.309721
1428.84	0.317339
1430.02	0.318227
1431.21	0.321213
1432.39	0.327167
1433.58	0.33381
1434.76	0.334884
1435.95	0.330897
1437.13	0.333031
1438.32	0.338047
1439.5	0.340106
1440.69	0.341058
1441.87	0.341647
1443.06	0.342415
1444.24	0.342531
1445.43	0.340621
1446.61	0.346021
1447.8	0.353595
1448.98	0.360996
1450.17	0.366583
1451.35	0.373693
1452.54	0.383823
1453.72	0.395405
1454.91	0.404052
1456.09	0.411742
1457.28	0.422558
1458.46	0.435331
1459.65	0.447017
1460.83	0.461787
1462.02	0.483425
1463.2	0.500278
1464.39	0.51138
1465.57	0.523315
1466.76	0.545163
1467.94	0.565845
1469.13	0.583171
1470.31	0.602515
1471.5	0.624067
1472.68	0.651204
1473.87	0.674751
1475.05	0.694379
1476.24	0.718161
1477.42	0.738112
1478.61	0.752171
1479.79	0.766776
1480.98	0.78309
1482.16	0.794988
1483.35	0.798738
1484.53	0.799901
1485.72	0.803858
1486.9	0.801811
1488.09	0.793675
1489.27	0.779636
1490.46	0.761361
1491.64	0.739468
1492.83	0.710735
1494.01	0.682773
1495.2	0.654959
1496.38	0.625487
1497.57	0.595857
1498.75	0.565801
1499.94	0.538829
1501.12	0.51073
1502.31	0.479814
1503.49	0.453041
1504.68	0.431273
1505.86	0.407288
1507.05	0.385132
1508.23	0.369882
1509.42	0.359819
1510.6	0.347466
1511.79	0.333616
1512.97	0.324067
1514.16	0.315197
1515.34	0.307338
1516.53	0.294554
1517.71	0.283626
1518.9	0.279949
1520.08	0.275185
1521.27	0.265329
1522.45	0.255372
1523.64	0.251639
1524.82	0.250147
1526.01	0.248275
1527.19	0.252169
1528.38	0.259385
1529.56	0.259163
1530.75	0.256913
1531.93	0.255461
1533.12	0.255531
1534.3	0.256275
1535.49	0.257322
1536.67	0.259907
1537.86	0.265015
1539.04	0.270963
1540.23	0.274893
1541.41	0.272798
1542.6	0.266904
1543.78	0.25659
1544.97	0.24685
1546.15	0.242612
1547.34	0.237316
1548.52	0.234006
1549.71	0.235876
1550.89	0.237866
1552.08	0.229418
1553.26	0.220564
1554.45	0.213023
1555.63	0.208627
1556.82	0.205329
1558	0.202231
1559.19	0.198708
1560.37	0.197383
1561.56	0.188888
1562.74	0.179154
1563.93	0.1763
1565.11	0.175702
1566.3	0.169377
1567.48	0.159803
1568.67	0.158292
1569.85	0.155244
1571.04	0.151089
1572.22	0.147057
1573.41	0.140027
1574.59	0.131962
1575.78	0.126214
1576.96	0.122864
1578.15	0.127601
1579.33	0.131688
1580.52	0.130353
1581.7	0.125745
1582.89	0.121769
1584.07	0.120196
1585.26	0.119365
1586.44	0.115919
1587.63	0.113206
1588.81	0.110112
1590	0.10768
1591.18	0.107548
1592.37	0.107168
1593.55	0.103741
1594.74	0.100379
1595.92	0.0973856
1597.11	0.0918812
1598.29	0.083421
1599.48	0.0786618
1600.66	0.0765126
1601.85	0.0692165
1603.03	0.0631691
1604.22	0.0572016
1605.4	0.0504828
1606.59	0.0456988
1607.77	0.0435994
1608.96	0.0432544
1610.14	0.0408744
1611.33	0.0365886
1612.51	0.0324451
1613.7	0.0337906
1614.88	0.0388371
1616.07	0.0401786
1617.25	0.0368935
1618.44	0.0372114
1619.62	0.0386784
1620.81	0.0415596
1621.99	0.0454854
1623.18	0.045968
1624.36	0.0442946
1625.55	0.0443162
1626.73	0.0477686
1627.92	0.0500397
1629.1	0.0483434
1630.29	0.0421385
1631.47	0.0321926
1632.66	0.0292774
1633.84	0.024909
1635.03	0.0188074
1636.21	0.0159372
1637.4	0.00767699
1638.58	0.00601079
1639.77	0.00372785
1640.95	0.00124462
1642.14	-0.00385113
1643.32	-0.00929765
1644.51	-0.0105657
1645.69	-0.00839891
1646.88	-0.0021305
1648.06	0.00411158
1649.25	0.00882452
1650.43	0.0163773
1651.62	0.0232266
1652.8	0.022469
1653.99	0.0256241
1655.17	0.0279385
1656.36	0.0316337
1657.54	0.0353735
1658.73	0.0401189
1659.91	0.044515
1661.1	0.0477919
1662.28	0.0529151
1663.47	0.0553021
1664.65	0.0575889
1665.84	0.0588778
1667.02	0.0570211
1668.21	0.0573752
1669.39	0.0655305
1670.58	0.0743383
1671.76	0.0795066
1672.95	0.0835281
1674.13	0.0876726
1675.32	0.0890628
1676.5	0.0927138
1677.69	0.097792
1678.87	0.0993144
1680.06	0.0975601
1681.24	0.0968441
1682.43	0.0980694
1683.61	0.0989647
1684.8	0.100014
1685.98	0.0944585
1687.17	0.0867275
1688.35	0.0834191
1689.54	0.0815036
1690.72	0.0788104
1691.91	0.0758997
1693.09	0.0723016
1694.28	0.0657579
1695.46	0.0607246
1696.65	0.0568008
1697.83	0.0530932
1699.02	0.0447072
1700.2	0.045004
1701.39	0.0411763
1702.57	0.0414681
1703.76	0.0417909
1704.94	0.0403879
1706.13	0.0363458
1707.31	0.0300879
1708.5	0.0261033
1709.68	0.0252132
1710.87	0.0244088
1712.05	0.0217853
1713.24	0.0257882
1714.42	0.0298943
1715.61	0.0351278
1716.79	0.0363282
1717.98	0.0409297
1719.16	0.0432309
1720.35	0.0432922
1721.53	0.0418118
1722.72	0.0441328
1723.9	0.0509348
1725.09	0.0570775
1726.27	0.0609434
1727.46	0.0616827
1728.64	0.0633077
1729.83	0.0647003
1731.01	0.0670474
1732.2	0.0675003
1733.38	0.0662101
1734.57	0.0652945
1735.75	0.0634174
1736.94	0.0676836
1738.12	0.0714298
1739.31	0.0742542
1740.49	0.0723699
1741.68	0.0670968
1742.86	0.0628008
1744.05	0.0633552
1745.23	0.0616839
1746.42	0.0573676
1747.6	0.0502036
1748.79	0.0473788
1749.97	0.0451023
1751.16	0.043999
1752.34	0.0470911
1753.53	0.0433527
1754.71	0.0375559
1755.9	0.0307887
1757.08	0.0291534
1758.27	0.0282043
1759.45	0.0247205
1760.64	0.0242933
1761.82	0.0273697
1763.01	0.0308671
1764.19	0.0362011
1765.38	0.0366216
1766.56	0.0339991
1767.75	0.0316835
1768.93	0.0261548
1770.12	0.0279321
1771.3	0.0317551
1772.49	0.0325163
1773.67	0.0359771
1774.86	0.0361978
1776.04	0.0323545
1777.23	0.0269238
1778.41	0.0245598
1779.6	0.0218933
1780.78	0.017007
1781.97	0.016859
1783.15	0.0127058
1784.34	0.0102689
1785.52	0.00817664
1786.71	0.00378438
1787.89	0.0020177
1789.08	-0.000553655
1790.26	-0.0030231
1791.45	-0.00204201
1792.63	0.00220814
1793.82	0.000772828
1795	1.90645e-005
