405	0.161122
406.185	0.183158
407.37	0.201298
408.555	0.216838
409.74	0.229604
410.925	0.238523
412.11	0.246563
413.295	0.255109
414.48	0.26148
415.665	0.266329
416.85	0.270212
418.035	0.264427
419.22	0.25795
420.405	0.251479
421.59	0.24287
422.775	0.232959
423.96	0.220659
425.145	0.20737
426.33	0.195785
427.515	0.183979
428.7	0.170021
429.885	0.156062
431.07	0.145423
432.255	0.131021
433.44	0.118532
434.625	0.104483
435.81	0.0906747
436.995	0.0789257
438.18	0.0687684
439.365	0.0589955
440.55	0.0489397
441.735	0.0425454
442.92	0.036348
444.105	0.0315875
445.29	0.0257229
446.475	0.0187529
447.66	0.00860037
448.845	-0.000761325
450.03	-0.00691734
451.215	-0.0103921
452.4	-0.0105657
453.585	-0.00709603
454.77	-0.00224013
455.955	-0.000349924
457.14	0.007344
458.325	0.0114633
459.51	0.0198733
460.695	0.0333002
461.88	0.0476828
463.065	0.0627437
464.25	0.0800438
465.435	0.0979841
466.62	0.116539
467.805	0.143047
468.99	0.176171
470.175	0.204331
471.36	0.2327
472.545	0.265399
473.73	0.300135
474.915	0.335463
476.1	0.372053
477.285	0.411457
478.47	0.451861
479.655	0.486015
480.84	0.513627
482.025	0.545849
483.21	0.57395
484.395	0.605335
485.58	0.640811
486.765	0.673749
487.95	0.697484
489.135	0.716647
490.32	0.735739
491.505	0.751469
492.69	0.762309
493.875	0.773486
495.06	0.778386
496.245	0.776093
497.43	0.767192
498.615	0.759123
499.8	0.755586
500.985	0.749333
502.17	0.739229
503.355	0.725342
504.54	0.704525
505.725	0.676852
506.91	0.64948
508.095	0.623815
509.28	0.598541
510.465	0.569452
511.65	0.537159
512.835	0.498885
514.02	0.464453
515.205	0.438482
516.39	0.415226
517.575	0.389227
518.76	0.360024
519.945	0.329624
521.13	0.301332
522.315	0.277731
523.5	0.254591
524.685	0.238182
525.87	0.220954
527.055	0.202684
528.24	0.186968
529.424	0.172986
530.61	0.162473
531.795	0.156178
532.98	0.150863
534.165	0.14215
535.35	0.131221
536.535	0.127621
537.72	0.127366
538.905	0.124906
540.09	0.123283
541.275	0.12723
542.46	0.132727
543.645	0.137
544.83	0.142939
546.014	0.151433
547.199	0.158328
548.384	0.161664
549.569	0.164611
550.754	0.167125
551.939	0.169498
553.124	0.17361
554.309	0.181055
555.494	0.184721
556.679	0.18633
557.864	0.186596
559.049	0.188104
560.234	0.187453
561.419	0.184202
562.604	0.181741
563.789	0.180493
564.974	0.178134
566.159	0.176829
567.344	0.180134
568.529	0.180301
569.714	0.175859
570.899	0.173015
572.084	0.169293
573.269	0.162665
574.454	0.156319
575.639	0.150311
576.824	0.145805
578.009	0.142922
579.194	0.139148
580.379	0.13351
581.564	0.127511
582.749	0.122819
583.934	0.117362
585.119	0.108411
586.304	0.0981004
587.489	0.0922342
588.674	0.0885141
589.859	0.0838302
591.044	0.0797976
592.229	0.0779048
593.414	0.0775312
594.599	0.0783447
595.784	0.0795745
596.969	0.0784884
598.154	0.0757213
599.339	0.0711116
600.524	0.0663129
601.709	0.0619867
602.894	0.0594912
604.079	0.0600311
605.264	0.0594411
606.449	0.0549828
607.634	0.0517696
608.819	0.0525045
610.004	0.05491
611.189	0.0545844
612.374	0.0498127
613.559	0.0442001
614.744	0.0391356
615.929	0.0351186
617.114	0.0310016
618.299	0.0326926
619.484	0.0341437
620.669	0.0317823
621.854	0.0285331
623.039	0.0292461
624.224	0.0306256
625.409	0.0312619
626.594	0.0303691
627.779	0.027302
628.964	0.0224827
630.149	0.0168116
631.334	0.0145708
632.519	0.0174076
633.704	0.0211102
634.889	0.0215077
636.074	0.0246769
637.259	0.0232488
638.444	0.019253
639.629	0.0182292
640.814	0.0180557
641.999	0.0130891
643.184	0.00725682
644.369	0.00640913
645.554	0.00795681
646.739	0.00664444
647.924	0.00491174
649.109	0.00798156
650.294	0.0101103
651.479	0.00692865
652.664	0.00539924
653.849	0.00806112
655.034	0.00581174
656.219	0.00525843
657.404	0.0103102
658.589	0.0162573
659.774	0.0208716
660.959	0.0257427
662.144	0.0318036
663.329	0.0377662
664.514	0.0424269
665.699	0.0464796
666.884	0.050078
668.069	0.05077
669.254	0.0545246
670.439	0.0597605
671.624	0.0613841
672.809	0.0656492
673.994	0.0734274
675.179	0.0816414
676.364	0.0886728
677.549	0.0937397
678.734	0.0975444
679.919	0.10139
681.104	0.106721
682.289	0.113071
683.474	0.120321
684.659	0.129918
685.844	0.139427
687.029	0.145733
688.214	0.148639
689.399	0.151539
690.584	0.157251
691.769	0.16493
692.954	0.171155
694.139	0.173102
695.324	0.172417
696.509	0.171863
697.694	0.17246
698.879	0.175884
700.064	0.177372
701.249	0.173914
702.434	0.167978
703.619	0.16041
704.804	0.151346
705.989	0.144384
707.174	0.1399
708.359	0.135205
709.544	0.127443
710.729	0.11588
711.914	0.106708
713.099	0.0976285
714.284	0.0860244
715.469	0.0768503
716.654	0.0706966
717.839	0.0623314
719.024	0.0524777
720.209	0.0434031
721.394	0.0369608
722.579	0.0346696
723.764	0.034716
724.949	0.0338845
726.134	0.0327315
727.319	0.0313464
728.504	0.0269148
729.689	0.0194271
730.874	0.00884742
732.059	0.00326899
733.244	0.00566898
734.429	0.00722814
735.614	0.00830733
736.799	0.0107724
737.984	0.0119667
739.169	0.0116822
740.354	0.0110671
741.539	0.0102721
742.724	0.00938804
743.909	0.00716613
745.094	0.00413864
746.279	0.00447467
747.464	0.00890614
748.649	0.013599
749.834	0.0186547
751.019	0.0231477
752.204	0.0250347
753.389	0.0266584
754.574	0.0276824
755.759	0.0268071
756.944	0.0290221
758.129	0.0331039
759.314	0.0331052
760.499	0.0296435
761.684	0.0276388
762.869	0.0305883
764.054	0.0347034
765.239	0.0350175
766.424	0.033009
767.609	0.0315217
768.794	0.0303419
769.979	0.0286879
771.164	0.0250724
772.349	0.0189697
773.534	0.0139065
774.719	0.0110331
775.904	0.00649743
777.089	9.38383e-005
778.274	-0.00263196
779.459	0.00159143
780.644	0.00568425
781.829	0.00397959
783.014	0.000973847
784.199	0.00162887
785.384	0.00489915
786.569	0.00890303
787.754	0.0118142
788.939	0.0128807
790.124	0.0141371
791.309	0.0163298
792.494	0.0174801
793.679	0.0171095
794.864	0.0176853
796.049	0.0208201
797.234	0.0233117
798.419	0.0206631
799.604	0.0181133
800.789	0.0186612
801.974	0.0178175
803.159	0.0166608
804.344	0.0156587
805.529	0.012642
806.714	0.0101538
807.898	0.0131737
809.083	0.0173974
810.268	0.0169065
811.454	0.0143355
812.639	0.0142591
813.824	0.0169485
815.009	0.0195004
816.194	0.0224333
817.379	0.0249659
818.564	0.0251476
819.749	0.0245737
820.934	0.0246882
822.119	0.0256814
823.304	0.0305535
824.489	0.0395913
825.673	0.0480264
826.858	0.053381
828.043	0.0597532
829.228	0.0706862
830.413	0.0858908
831.598	0.103567
832.783	0.120825
833.968	0.139546
835.153	0.160912
836.338	0.185323
837.523	0.210238
838.708	0.235273
839.893	0.261755
841.078	0.28923
842.263	0.313869
843.448	0.335878
844.633	0.355164
845.818	0.372044
847.003	0.389555
848.188	0.407843
849.373	0.422879
850.558	0.433542
851.743	0.442403
852.928	0.44966
854.113	0.45444
855.298	0.45961
856.483	0.468673
857.668	0.480826
858.853	0.49318
860.038	0.501839
861.223	0.512608
862.408	0.524763
863.593	0.544611
864.778	0.571109
865.963	0.597961
867.148	0.624406
868.333	0.654605
869.518	0.684692
870.703	0.715649
871.888	0.748913
873.073	0.783417
874.258	0.817087
875.443	0.845911
876.628	0.868848
877.813	0.890513
878.998	0.911971
880.183	0.930602
881.368	0.943559
882.553	0.948225
883.738	0.946817
884.923	0.942951
886.108	0.934627
887.293	0.921502
888.478	0.905921
889.663	0.88518
890.848	0.861839
892.033	0.839467
893.218	0.813297
894.403	0.786249
895.588	0.757003
896.773	0.722258
897.958	0.68772
899.143	0.65599
900.328	0.626303
901.513	0.599243
902.698	0.570251
903.883	0.54157
905.068	0.514184
906.253	0.489008
907.438	0.467564
908.623	0.445418
909.808	0.418067
910.993	0.390516
912.178	0.36738
913.363	0.349679
914.548	0.337477
915.733	0.325803
916.918	0.312139
918.103	0.299654
919.288	0.289419
920.473	0.281817
921.658	0.27821
922.843	0.277058
924.028	0.275908
925.213	0.274194
926.398	0.275559
927.583	0.282469
928.768	0.292434
929.953	0.304289
931.138	0.314168
932.323	0.323036
933.508	0.331856
934.693	0.344759
935.878	0.360553
937.063	0.373018
938.248	0.38507
939.433	0.396229
940.618	0.408794
941.803	0.42343
942.988	0.439484
944.173	0.44933
945.358	0.458288
946.543	0.467666
947.728	0.476057
948.913	0.48466
950.098	0.48985
951.283	0.492383
952.468	0.494818
953.653	0.495267
954.838	0.497233
956.023	0.49562
957.208	0.489773
958.393	0.480535
959.578	0.468133
960.763	0.454637
961.948	0.443681
963.133	0.433822
964.318	0.421896
965.503	0.405898
966.688	0.385545
967.873	0.365358
969.058	0.347663
970.243	0.330142
971.428	0.313267
972.613	0.295988
973.798	0.276418
974.983	0.261661
976.168	0.250028
977.353	0.237724
978.538	0.224866
979.723	0.211895
980.908	0.199824
982.093	0.189796
983.278	0.179406
984.463	0.174768
985.648	0.174813
986.833	0.173827
988.018	0.175256
989.203	0.172902
990.388	0.171184
991.573	0.174537
992.758	0.180628
993.943	0.182333
995.128	0.184381
996.313	0.187139
997.498	0.192082
998.683	0.197218
999.868	0.198562
1001.05	0.205359
1002.24	0.213617
1003.42	0.21932
1004.61	0.22418
1005.79	0.224594
1006.98	0.228645
1008.16	0.232755
1009.35	0.233997
1010.53	0.232662
1011.72	0.231133
1012.9	0.23205
1014.09	0.237049
1015.27	0.239802
1016.46	0.238564
1017.64	0.236941
1018.83	0.23491
1020.01	0.230921
1021.2	0.227626
1022.38	0.222583
1023.57	0.216268
1024.75	0.212841
1025.94	0.208983
1027.12	0.207234
1028.31	0.208771
1029.49	0.206449
1030.68	0.20076
1031.86	0.198942
1033.05	0.199591
1034.23	0.201376
1035.42	0.202954
1036.6	0.202058
1037.79	0.202619
1038.97	0.204065
1040.16	0.206066
1041.34	0.212101
1042.53	0.217627
1043.71	0.220595
1044.9	0.222959
1046.08	0.22228
1047.27	0.22576
1048.45	0.236427
1049.64	0.2434
1050.82	0.246225
1052.01	0.253552
1053.19	0.263659
1054.38	0.27754
1055.56	0.291356
1056.75	0.305895
1057.93	0.324606
1059.12	0.345818
1060.3	0.365991
1061.49	0.386434
1062.67	0.408273
1063.86	0.433783
1065.04	0.463149
1066.23	0.493408
1067.41	0.524327
1068.6	0.554441
1069.78	0.582419
1070.97	0.609047
1072.15	0.635161
1073.34	0.663741
1074.52	0.689429
1075.71	0.707844
1076.89	0.725753
1078.08	0.744662
1079.26	0.766283
1080.45	0.783672
1081.63	0.79808
1082.82	0.805371
1084	0.806884
1085.19	0.807625
1086.37	0.810131
1087.56	0.81626
1088.74	0.816858
1089.93	0.813085
1091.11	0.803129
1092.3	0.793746
1093.48	0.783558
1094.67	0.773901
1095.85	0.760257
1097.04	0.745588
1098.22	0.732123
1099.41	0.715879
1100.59	0.700738
1101.78	0.686663
1102.96	0.67198
1104.15	0.657216
1105.33	0.632334
1106.52	0.618269
1107.7	0.603895
1108.89	0.589839
1110.07	0.572416
1111.26	0.55992
1112.44	0.541183
1113.63	0.529992
1114.81	0.517421
1116	0.505962
1117.18	0.496066
1118.37	0.484917
1119.55	0.479223
1120.74	0.475825
1121.92	0.468396
1123.11	0.467315
1124.29	0.458598
1125.48	0.457277
1126.66	0.453645
1127.85	0.448969
1129.03	0.446096
1130.22	0.445976
1131.4	0.438339
1132.59	0.436063
1133.77	0.437428
1134.96	0.435032
1136.14	0.438083
1137.33	0.433007
1138.51	0.426687
1139.7	0.420645
1140.88	0.413919
1142.07	0.410834
1143.25	0.401471
1144.44	0.390837
1145.62	0.38417
1146.81	0.378693
1147.99	0.367698
1149.18	0.356196
1150.36	0.335449
1151.55	0.318199
1152.73	0.307695
1153.92	0.291396
1155.1	0.272513
1156.29	0.249671
1157.47	0.226561
1158.66	0.209339
1159.84	0.188381
1161.03	0.17159
1162.21	0.156974
1163.4	0.139013
1164.58	0.120029
1165.77	0.105051
1166.95	0.094001
1168.14	0.0848965
1169.32	0.0742289
1170.51	0.060237
1171.69	0.0481156
1172.88	0.0399566
1174.06	0.0378676
1175.25	0.0347373
1176.43	0.0264773
1177.62	0.020831
1178.8	0.0136002
1179.99	0.00622249
1181.17	0.00221957
1182.36	0.00267939
1183.54	0.00281888
1184.73	0.0023219
1185.91	0.0024611
1187.1	0.00318235
1188.28	0.00448583
1189.47	0.00709766
1190.65	0.00795284
1191.84	0.00678102
1193.02	0.00854566
1194.21	0.0113002
1195.39	0.0138331
1196.58	0.0153458
1197.76	0.0233614
1198.95	0.0275826
1200.13	0.0269176
1201.32	0.0277008
1202.5	0.0304289
1203.69	0.031886
1204.87	0.0302506
1206.06	0.0306484
1207.24	0.0311417
1208.43	0.0338676
1209.61	0.0365412
1210.8	0.0394218
1211.98	0.0399653
1213.17	0.0413426
1214.35	0.0454321
1215.54	0.0451001
1216.72	0.0480926
1217.91	0.0519592
1219.09	0.0565577
1220.28	0.0566199
1221.46	0.0567495
1222.65	0.0597393
1223.83	0.061858
1225.02	0.0637304
1226.2	0.0662263
1227.39	0.0700508
1228.57	0.073328
1229.76	0.0796904
1230.94	0.087555
1232.13	0.0930521
1233.31	0.0947946
1234.5	0.0988865
1235.68	0.0989611
1236.87	0.0970629
1238.05	0.09657
1239.24	0.0994265
1240.42	0.104603
1241.61	0.107478
1242.79	0.112503
1243.98	0.11532
1245.16	0.116214
1246.35	0.116012
1247.53	0.110705
1248.72	0.105854
1249.9	0.101245
1251.09	0.0991415
1252.27	0.0995307
1253.46	0.105677
1254.64	0.112513
1255.83	0.117305
1257.01	0.119177
1258.2	0.11494
1259.38	0.113777
1260.57	0.114394
1261.75	0.117625
1262.94	0.122855
1264.12	0.13011
1265.31	0.136237
1266.49	0.144255
1267.68	0.155117
1268.86	0.163135
1270.05	0.167589
1271.23	0.172796
1272.42	0.18268
1273.6	0.187738
1274.79	0.194294
1275.97	0.206103
1277.16	0.218478
1278.34	0.222732
1279.53	0.221894
1280.71	0.220603
1281.9	0.224652
1283.08	0.231861
1284.27	0.235528
1285.45	0.235817
1286.64	0.239343
1287.82	0.240331
1289.01	0.239891
1290.19	0.237675
1291.38	0.23819
1292.56	0.241584
1293.75	0.23979
1294.93	0.237902
1296.12	0.244606
1297.3	0.254526
1298.49	0.259974
1299.67	0.259355
1300.86	0.254735
1302.04	0.252931
1303.23	0.253064
1304.41	0.252367
1305.6	0.25249
1306.78	0.251587
1307.97	0.25061
1309.15	0.248546
1310.34	0.242631
1311.52	0.240776
1312.71	0.240364
1313.89	0.235623
1315.08	0.228988
1316.26	0.224457
1317.45	0.22495
1318.63	0.229515
1319.82	0.234469
1321	0.239692
1322.19	0.241731
1323.37	0.237934
1324.56	0.241804
1325.74	0.249554
1326.93	0.25677
1328.11	0.260445
1329.3	0.258365
1330.48	0.261254
1331.67	0.267168
1332.85	0.274299
1334.04	0.279661
1335.22	0.2832
1336.41	0.28245
1337.59	0.282445
1338.78	0.284724
1339.96	0.291344
1341.15	0.299677
1342.33	0.302162
1343.52	0.3053
1344.7	0.314077
1345.89	0.320766
1347.07	0.324106
1348.26	0.324468
1349.44	0.323116
1350.63	0.322108
1351.81	0.321746
1353	0.321553
1354.18	0.319506
1355.37	0.31704
1356.55	0.315413
1357.74	0.31267
1358.92	0.310665
1360.11	0.308159
1361.29	0.302069
1362.48	0.300546
1363.66	0.298125
1364.85	0.295148
1366.03	0.294853
1367.22	0.293994
1368.4	0.298229
1369.59	0.303789
1370.77	0.307583
1371.96	0.310504
1373.14	0.310021
1374.33	0.309686
1375.51	0.310255
1376.7	0.308518
1377.88	0.307257
1379.07	0.306512
1380.25	0.30622
1381.44	0.306439
1382.62	0.304736
1383.81	0.302946
1384.99	0.298211
1386.18	0.291121
1387.36	0.286373
1388.55	0.283974
1389.73	0.287167
1390.92	0.291304
1392.1	0.289706
1393.29	0.286283
1394.47	0.286252
1395.66	0.285969
1396.84	0.283933
1398.03	0.28167
1399.21	0.280971
1400.4	0.281556
1401.58	0.283327
1402.77	0.284691
1403.95	0.28557
1405.14	0.285603
1406.32	0.282739
1407.51	0.279329
1408.69	0.279157
1409.88	0.282271
1411.06	0.28775
1412.25	0.290895
1413.43	0.29035
1414.62	0.287683
1415.8	0.286957
1416.99	0.289762
1418.17	0.292181
1419.36	0.29633
1420.54	0.302232
1421.73	0.306594
1422.91	0.310256
1424.1	0.31321
1425.28	0.31523
1426.47	0.318083
1427.65	0.318786
1428.84	0.318679
1430.02	0.3245
1431.21	0.333455
1432.39	0.341101
1433.58	0.346138
1434.76	0.34922
1435.95	0.349755
1437.13	0.347611
1438.32	0.346623
1439.5	0.348613
1440.69	0.35103
1441.87	0.352089
1443.06	0.352384
1444.24	0.35353
1445.43	0.358879
1446.61	0.362207
1447.8	0.362481
1448.98	0.367195
1450.17	0.371626
1451.35	0.377455
1452.54	0.387153
1453.72	0.395483
1454.91	0.401952
1456.09	0.408153
1457.28	0.415601
1458.46	0.425018
1459.65	0.438599
1460.83	0.454545
1462.02	0.465801
1463.2	0.475582
1464.39	0.489989
1465.57	0.505771
1466.76	0.523956
1467.94	0.545149
1469.13	0.560933
1470.31	0.577363
1471.5	0.599393
1472.68	0.623271
1473.87	0.647808
1475.05	0.671836
1476.24	0.692092
1477.42	0.710359
1478.61	0.73002
1479.79	0.748168
1480.98	0.763382
1482.16	0.776422
1483.35	0.782446
1484.53	0.781843
1485.72	0.781211
1486.9	0.782341
1488.09	0.778219
1489.27	0.769069
1490.46	0.756796
1491.64	0.741287
1492.83	0.724028
1494.01	0.702377
1495.2	0.678169
1496.38	0.651407
1497.57	0.624357
1498.75	0.598568
1499.94	0.574121
1501.12	0.548684
1502.31	0.523065
1503.49	0.497883
1504.68	0.472544
1505.86	0.448661
1507.05	0.424804
1508.23	0.400986
1509.42	0.379146
1510.6	0.36378
1511.79	0.349939
1512.97	0.336094
1514.16	0.324254
1515.34	0.309493
1516.53	0.29657
1517.71	0.289376
1518.9	0.284237
1520.08	0.279607
1521.27	0.27685
1522.45	0.275392
1523.64	0.275184
1524.82	0.276953
1526.01	0.280523
1527.19	0.281477
1528.38	0.279821
1529.56	0.282887
1530.75	0.286135
1531.93	0.290958
1533.12	0.297511
1534.3	0.303101
1535.49	0.307756
1536.67	0.310128
1537.86	0.310806
1539.04	0.308152
1540.23	0.302347
1541.41	0.296936
1542.6	0.292415
1543.78	0.289832
1544.97	0.287248
1546.15	0.282506
1547.34	0.277502
1548.52	0.272671
1549.71	0.267759
1550.89	0.262575
1552.08	0.255941
1553.26	0.251768
1554.45	0.247821
1555.63	0.24583
1556.82	0.245754
1558	0.242876
1559.19	0.237801
1560.37	0.231615
1561.56	0.226106
1562.74	0.221736
1563.93	0.215759
1565.11	0.21175
1566.3	0.20596
1567.48	0.199162
1568.67	0.192399
1569.85	0.18388
1571.04	0.177755
1572.22	0.17318
1573.41	0.169377
1574.59	0.165594
1575.78	0.161262
1576.96	0.157554
1578.15	0.153657
1579.33	0.149305
1580.52	0.147616
1581.7	0.143726
1582.89	0.140715
1584.07	0.1376
1585.26	0.135683
1586.44	0.134418
1587.63	0.131766
1588.81	0.128848
1590	0.125277
1591.18	0.122506
1592.37	0.120789
1593.55	0.117451
1594.74	0.113668
1595.92	0.111128
1597.11	0.108472
1598.29	0.104173
1599.48	0.0996927
1600.66	0.0962193
1601.85	0.0938568
1603.03	0.0911236
1604.22	0.0891507
1605.4	0.0869393
1606.59	0.0845774
1607.77	0.0817579
1608.96	0.0775289
1610.14	0.0748979
1611.33	0.0728535
1612.51	0.072802
1613.7	0.0710202
1614.88	0.0682976
1616.07	0.0663044
1617.25	0.0652709
1618.44	0.0631897
1619.62	0.0607116
1620.81	0.0571119
1621.99	0.0536746
1623.18	0.0503556
1624.36	0.0464346
1625.55	0.0439154
1626.73	0.0404006
1627.92	0.0361765
1629.1	0.0306361
1630.29	0.0285395
1631.47	0.027021
1632.66	0.0215289
1633.84	0.0172359
1635.03	0.0141216
1636.21	0.0116912
1637.4	0.00882804
1638.58	0.00666501
1639.77	0.00552007
1640.95	0.00440667
1642.14	0.0034528
1643.32	0.00497833
1644.51	0.00590758
1645.69	0.00507654
1646.88	0.00443626
1648.06	0.00573539
1649.25	0.00892069
1650.43	0.010266
1651.62	0.00895306
1652.8	0.00882789
1653.99	0.0115557
1655.17	0.0116658
1656.36	0.0147659
1657.54	0.0184083
1658.73	0.0200232
1659.91	0.0203891
1661.1	0.0234339
1662.28	0.0275739
1663.47	0.0305939
1664.65	0.0324623
1665.84	0.0341153
1667.02	0.0358349
1668.21	0.0427852
1669.39	0.0485829
1670.58	0.0518033
1671.76	0.054769
1672.95	0.0560396
1674.13	0.0581164
1675.32	0.062489
1676.5	0.0653098
1677.69	0.064854
1678.87	0.0641452
1680.06	0.064281
1681.24	0.0657478
1682.43	0.0662021
1683.61	0.0683503
1684.8	0.0659027
1685.98	0.0613203
1687.17	0.0586288
1688.35	0.0600006
1689.54	0.063791
1690.72	0.0634961
1691.91	0.0599591
1693.09	0.0579724
1694.28	0.0583524
1695.46	0.0581353
1696.65	0.0556709
1697.83	0.053095
1699.02	0.0499952
1700.2	0.0459885
1701.39	0.043353
1702.57	0.0419564
1703.76	0.040685
1704.94	0.036955
1706.13	0.0317163
1707.31	0.0292773
1708.5	0.0289448
1709.68	0.0265508
1710.87	0.023665
1712.05	0.0235735
1713.24	0.0241345
1714.42	0.0249192
1715.61	0.026208
1716.79	0.0282809
1717.98	0.0288347
1719.16	0.0276778
1720.35	0.025922
1721.53	0.0240599
1722.72	0.0242234
1723.9	0.0269713
1725.09	0.0289502
1726.27	0.0324847
1727.46	0.0317694
1728.64	0.0270082
1729.83	0.0278433
1731.01	0.0274306
1732.2	0.0261462
1733.38	0.0242291
1734.57	0.0250595
1735.75	0.0275259
1736.94	0.0297752
1738.12	0.0304979
1739.31	0.0296826
1740.49	0.0303985
1741.68	0.0308497
1742.86	0.0320172
1744.05	0.0348771
1745.23	0.0379386
1746.42	0.0365614
1747.6	0.0338997
1748.79	0.0328735
1749.97	0.0318913
1751.16	0.0299164
1752.34	0.0281879
1753.53	0.0280608
1754.71	0.0300801
1755.9	0.0265434
1757.08	0.023018
1758.27	0.0179849
1759.45	0.0144234
1760.64	0.011739
1761.82	0.00754145
1763.01	0.0060463
1764.19	0.00721899
1765.38	0.00854042
1766.56	0.00878977
1767.75	0.010454
1768.93	0.00999286
1770.12	0.00850822
1771.3	0.008777
1772.49	0.0104283
1773.67	0.0104842
1774.86	0.0121728
1776.04	0.0141713
1777.23	0.0166313
1778.41	0.0202711
1779.6	0.0184889
1780.78	0.0186595
1781.97	0.015074
1783.15	0.0134605
1784.34	0.0128741
1785.52	0.0121976
1786.71	0.0110966
1787.89	0.00844465
1789.08	0.00751216
1790.26	0.0064854
1791.45	0.00580312
1792.63	0.00413654
1793.82	0.00358323
1795	0.00555729
