405	0.0805172
406.185	0.0933466
407.37	0.105889
408.555	0.119971
409.74	0.133675
410.925	0.143384
412.11	0.146572
413.295	0.13816
414.48	0.119453
415.665	0.110963
416.85	0.113517
418.035	0.118239
419.22	0.124959
420.405	0.132366
421.59	0.135317
422.775	0.122028
423.96	0.0974841
425.145	0.0765404
426.33	0.0629442
427.515	0.0455234
428.7	0.0236895
429.885	0.0121176
431.07	0.0156906
432.255	0.0129012
433.44	0.0212523
434.625	0.0286837
435.81	0.0290731
436.995	0.0247615
438.18	0.0184361
439.365	0.0116535
440.55	0.00805928
441.735	0.00482478
442.92	0.00507751
444.105	0.0133824
445.29	0.0187938
446.475	0.02302
447.66	0.0325991
448.845	0.0440824
450.03	0.0516127
451.215	0.0594583
452.4	0.0731571
453.585	0.0808723
454.77	0.0912074
455.955	0.108436
457.14	0.126992
458.325	0.146637
459.51	0.161806
460.695	0.180472
461.88	0.205957
463.065	0.233457
464.25	0.257349
465.435	0.277909
466.62	0.300489
467.805	0.327525
468.99	0.348818
470.175	0.382454
471.36	0.415667
472.545	0.447806
473.73	0.476775
474.915	0.50143
476.1	0.525912
477.285	0.5557
478.47	0.592124
479.655	0.631316
480.84	0.662826
482.025	0.688745
483.21	0.718421
484.395	0.754654
485.58	0.79253
486.765	0.818736
487.95	0.838299
489.135	0.850105
490.32	0.856713
491.505	0.863727
492.69	0.865478
493.875	0.86573
495.06	0.872804
496.245	0.872049
497.43	0.860822
498.615	0.851973
499.8	0.842411
500.985	0.823781
502.17	0.800341
503.355	0.771621
504.54	0.734919
505.725	0.699477
506.91	0.676492
508.095	0.653142
509.28	0.624152
510.465	0.595672
511.65	0.576714
512.835	0.560647
514.02	0.53915
515.205	0.517035
516.39	0.493879
517.575	0.466113
518.76	0.434722
519.945	0.408648
521.13	0.397338
522.315	0.389511
523.5	0.381464
524.685	0.376305
525.87	0.366676
527.055	0.352954
528.24	0.337488
529.424	0.318473
530.609	0.304087
531.794	0.298344
532.98	0.299118
534.165	0.302558
535.35	0.302869
536.535	0.30326
537.72	0.315361
538.905	0.328206
540.09	0.324677
541.275	0.318605
542.46	0.316649
543.645	0.322599
544.83	0.327954
546.015	0.332811
547.199	0.342285
548.384	0.35673
549.569	0.370534
550.754	0.375027
551.939	0.376156
553.124	0.377169
554.309	0.382846
555.494	0.385596
556.679	0.381725
557.864	0.381172
559.049	0.390351
560.234	0.401201
561.419	0.409853
562.604	0.416533
563.789	0.418011
564.974	0.410825
566.159	0.396836
567.344	0.389887
568.529	0.381766
569.714	0.374312
570.899	0.37142
572.084	0.36418
573.269	0.351741
574.454	0.349152
575.639	0.355261
576.824	0.363257
578.009	0.36663
579.194	0.363152
580.379	0.357741
581.564	0.352384
582.749	0.349878
583.934	0.353216
585.119	0.363023
586.304	0.361848
587.489	0.35968
588.674	0.359322
589.859	0.364924
591.044	0.370708
592.229	0.37531
593.414	0.37163
594.599	0.359709
595.784	0.347434
596.969	0.329236
598.154	0.313103
599.339	0.302678
600.524	0.299329
601.709	0.292565
602.894	0.282427
604.079	0.277388
605.264	0.278905
606.449	0.283921
607.634	0.287642
608.819	0.278126
610.004	0.258928
611.189	0.242043
612.374	0.232567
613.559	0.233973
614.744	0.23153
615.929	0.226849
617.114	0.217199
618.299	0.21502
619.484	0.211685
620.669	0.207178
621.854	0.200347
623.039	0.193322
624.224	0.181445
625.409	0.165387
626.594	0.150314
627.779	0.142086
628.964	0.138729
630.149	0.128694
631.334	0.113563
632.519	0.108332
633.704	0.100024
634.889	0.0951022
636.074	0.0962372
637.259	0.0879081
638.444	0.0758779
639.629	0.0659173
640.814	0.0628892
641.999	0.063794
643.184	0.0688339
644.369	0.0735735
645.554	0.0750942
646.739	0.0798366
647.924	0.0899814
649.109	0.101824
650.294	0.115705
651.479	0.105097
652.664	0.0906265
653.849	0.0799599
655.034	0.0710178
656.219	0.0631337
657.404	0.0555617
658.589	0.0443872
659.774	0.0342946
660.959	0.0263122
662.144	0.0193101
663.329	0.0167651
664.514	0.0152164
665.699	0.00418805
666.884	-0.00831102
668.069	-0.00989641
669.254	-0.00905508
670.439	0.00189545
671.624	0.0133205
672.809	0.018283
673.994	0.0291585
675.179	0.0464029
676.364	0.0593165
677.549	0.0694612
678.734	0.0818596
679.919	0.0961761
681.104	0.107249
682.289	0.112857
683.474	0.118171
684.659	0.125731
685.844	0.127039
687.029	0.121603
688.214	0.121511
689.399	0.131362
690.584	0.145556
691.769	0.160057
692.954	0.166289
694.139	0.16597
695.324	0.170522
696.509	0.183515
697.694	0.193377
698.879	0.195278
700.064	0.19183
701.249	0.184235
702.434	0.172665
703.619	0.161434
704.804	0.158262
705.989	0.164719
707.174	0.166236
708.359	0.149041
709.544	0.127075
710.729	0.110303
711.914	0.0936044
713.099	0.0800495
714.284	0.0688516
715.469	0.0564554
716.654	0.0450855
717.839	0.0339877
719.024	0.0246282
720.209	0.0225217
721.394	0.0300662
722.579	0.041627
723.764	0.0469694
724.949	0.0419462
726.134	0.0354981
727.319	0.0374723
728.504	0.0433242
729.689	0.0515465
730.874	0.0655567
732.059	0.074187
733.244	0.0740737
734.429	0.0663769
735.614	0.0593927
736.799	0.0624329
737.984	0.0739467
739.169	0.0811785
740.354	0.0764175
741.539	0.0666385
742.724	0.0641609
743.909	0.0684313
745.094	0.0696082
746.279	0.0668094
747.464	0.065505
748.649	0.0639536
749.834	0.0627733
751.019	0.0653224
752.204	0.0731437
753.389	0.0824573
754.574	0.0888637
755.759	0.092024
756.944	0.0902505
758.129	0.0904594
759.314	0.0968265
760.499	0.103194
761.684	0.101424
762.869	0.0983209
764.054	0.104133
765.239	0.113121
766.424	0.118985
767.609	0.121853
768.794	0.119301
769.979	0.109558
771.164	0.0989298
772.349	0.095219
773.534	0.0919228
774.719	0.0794847
775.904	0.0636038
777.089	0.0542426
778.274	0.0506716
779.459	0.0447607
780.644	0.0398423
781.829	0.0396197
783.014	0.037902
784.199	0.027829
785.384	0.0138825
786.569	0.0034261
787.754	-0.00110383
788.939	0.000557008
790.124	0.00325616
791.309	0.00419242
792.494	0.00640999
793.679	0.0115773
794.864	0.0173826
796.049	0.0222598
797.234	0.0276065
798.419	0.0287343
799.604	0.019903
800.789	0.0100778
801.974	0.00508962
803.159	0.0104247
804.344	0.0160651
805.529	0.0186702
806.714	0.0261612
807.899	0.0318196
809.084	0.032502
810.269	0.0308468
811.454	0.0326304
812.638	0.0352524
813.823	0.0331567
815.008	0.0291013
816.193	0.0271633
817.378	0.0319317
818.563	0.038248
819.748	0.0374769
820.934	0.0348403
822.119	0.0370023
823.304	0.040046
824.489	0.042128
825.674	0.0455476
826.859	0.0491051
828.044	0.0524764
829.229	0.061902
830.413	0.0757315
831.598	0.0904888
832.783	0.109778
833.968	0.124894
835.153	0.138457
836.338	0.152039
837.523	0.170683
838.708	0.192099
839.893	0.214876
841.078	0.24297
842.263	0.27232
843.448	0.293424
844.633	0.309353
845.818	0.326633
847.003	0.342045
848.188	0.350632
849.373	0.354608
850.558	0.358311
851.743	0.363139
852.928	0.369939
854.113	0.379079
855.298	0.39027
856.483	0.405374
857.668	0.422085
858.853	0.430921
860.038	0.433611
861.223	0.440324
862.408	0.455057
863.593	0.469238
864.778	0.479245
865.963	0.498538
867.148	0.52928
868.333	0.562419
869.518	0.590923
870.703	0.616358
871.888	0.64514
873.073	0.676613
874.258	0.701843
875.443	0.719928
876.628	0.735872
877.813	0.750828
878.998	0.763348
880.183	0.773363
881.368	0.782871
882.553	0.793105
883.738	0.80182
884.923	0.804566
886.108	0.800848
887.293	0.798356
888.478	0.796195
889.663	0.782714
890.848	0.763103
892.033	0.744883
893.218	0.72174
894.403	0.698069
895.588	0.676585
896.773	0.660829
897.958	0.648798
899.143	0.634797
900.328	0.614664
901.513	0.593293
902.698	0.567286
903.883	0.545347
905.068	0.526015
906.253	0.49925
907.438	0.477664
908.623	0.461036
909.808	0.443577
910.993	0.43395
912.178	0.433501
913.363	0.433708
914.548	0.425155
915.733	0.408811
916.918	0.395199
918.103	0.389351
919.288	0.386859
920.473	0.385956
921.658	0.386057
922.843	0.381305
924.028	0.375307
925.213	0.378406
926.398	0.387823
927.583	0.399906
928.768	0.412788
929.953	0.426625
931.138	0.438421
932.323	0.449718
933.508	0.466459
934.693	0.485309
935.878	0.501978
937.063	0.520664
938.248	0.549266
939.433	0.568552
940.618	0.587613
941.803	0.61125
942.988	0.633477
944.173	0.655899
945.358	0.663664
946.543	0.664185
947.728	0.665183
948.913	0.664577
950.098	0.667119
951.283	0.675946
952.468	0.683535
953.653	0.685969
954.838	0.680958
956.023	0.671935
957.208	0.662952
958.393	0.649208
959.578	0.632988
960.763	0.615595
961.948	0.591831
963.133	0.572536
964.318	0.562541
965.503	0.547838
966.688	0.525404
967.873	0.502141
969.058	0.481266
970.243	0.464466
971.428	0.449536
972.613	0.43494
973.798	0.424269
974.983	0.416135
976.168	0.405194
977.353	0.397481
978.538	0.389257
979.723	0.377807
980.908	0.371119
982.093	0.366283
983.278	0.367173
984.463	0.369749
985.648	0.378891
986.833	0.38011
988.018	0.375378
989.203	0.379427
990.388	0.387813
991.573	0.395968
992.758	0.386363
993.943	0.383939
995.128	0.383189
996.313	0.384038
997.498	0.401863
998.683	0.421716
999.868	0.434886
1001.05	0.4441
1002.24	0.463835
1003.42	0.469707
1004.61	0.469238
1005.79	0.467447
1006.98	0.460686
1008.16	0.454915
1009.35	0.449326
1010.53	0.456299
1011.72	0.469951
1012.9	0.480521
1014.09	0.489694
1015.27	0.495803
1016.46	0.495416
1017.64	0.496906
1018.83	0.491727
1020.01	0.476116
1021.2	0.468267
1022.38	0.470699
1023.57	0.47364
1024.75	0.479994
1025.94	0.490059
1027.12	0.504603
1028.31	0.512328
1029.49	0.503893
1030.68	0.497151
1031.86	0.499035
1033.05	0.502774
1034.23	0.501884
1035.42	0.492881
1036.6	0.4868
1037.79	0.489409
1038.97	0.494797
1040.16	0.504508
1041.34	0.51595
1042.53	0.518744
1043.71	0.51573
1044.9	0.513854
1046.08	0.51158
1047.27	0.515579
1048.45	0.529694
1049.64	0.536365
1050.82	0.539804
1052.01	0.549191
1053.19	0.567989
1054.38	0.58538
1055.56	0.599764
1056.75	0.612187
1057.93	0.621688
1059.12	0.632802
1060.3	0.647632
1061.49	0.662915
1062.67	0.678563
1063.86	0.696123
1065.04	0.727382
1066.23	0.755456
1067.41	0.779592
1068.6	0.796384
1069.78	0.804058
1070.97	0.816966
1072.15	0.828511
1073.34	0.836919
1074.52	0.847657
1075.71	0.860365
1076.89	0.869339
1078.08	0.879578
1079.26	0.890655
1080.45	0.895224
1081.63	0.887046
1082.82	0.874973
1084	0.861742
1085.19	0.855157
1086.37	0.853461
1087.56	0.853673
1088.74	0.851408
1089.93	0.849251
1091.11	0.845449
1092.3	0.835275
1093.48	0.815216
1094.67	0.797559
1095.85	0.792617
1097.04	0.785251
1098.22	0.775695
1099.41	0.76871
1100.59	0.751529
1101.78	0.7278
1102.96	0.705061
1104.15	0.691881
1105.33	0.675738
1106.52	0.642498
1107.7	0.639187
1108.89	0.629021
1110.07	0.618181
1111.26	0.610066
1112.44	0.604909
1113.63	0.592177
1114.81	0.57495
1116	0.557847
1117.18	0.548536
1118.37	0.538363
1119.55	0.539706
1120.74	0.534514
1121.92	0.524503
1123.11	0.529178
1124.29	0.542308
1125.48	0.513107
1126.66	0.516662
1127.85	0.514978
1129.03	0.51041
1130.22	0.504577
1131.4	0.501747
1132.59	0.510596
1133.77	0.51223
1134.96	0.504717
1136.14	0.513628
1137.33	0.518848
1138.51	0.509458
1139.7	0.510212
1140.88	0.509257
1142.07	0.512647
1143.25	0.509772
1144.44	0.506371
1145.62	0.497142
1146.81	0.492845
1147.99	0.477639
1149.18	0.465688
1150.36	0.44283
1151.55	0.428708
1152.73	0.423327
1153.92	0.406822
1155.1	0.392483
1156.29	0.384128
1157.47	0.370971
1158.66	0.347264
1159.84	0.325717
1161.03	0.314589
1162.21	0.284745
1163.4	0.277343
1164.58	0.270585
1165.77	0.267103
1166.95	0.253997
1168.14	0.245905
1169.32	0.23959
1170.51	0.234288
1171.69	0.225328
1172.88	0.215431
1174.06	0.212415
1175.25	0.207906
1176.43	0.208566
1177.62	0.210228
1178.8	0.224389
1179.99	0.233856
1181.17	0.227418
1182.36	0.221549
1183.54	0.216144
1184.73	0.220514
1185.91	0.225209
1187.1	0.231276
1188.28	0.232047
1189.47	0.236459
1190.65	0.245156
1191.84	0.247555
1193.02	0.247386
1194.21	0.245371
1195.39	0.235594
1196.58	0.22597
1197.76	0.227211
1198.95	0.23188
1200.13	0.238236
1201.32	0.243471
1202.5	0.247232
1203.69	0.244686
1204.87	0.235
1206.06	0.235623
1207.24	0.236582
1208.43	0.231606
1209.61	0.225871
1210.8	0.221899
1211.98	0.224929
1213.17	0.232051
1214.35	0.225195
1215.54	0.218058
1216.72	0.206614
1217.91	0.208442
1219.09	0.205
1220.28	0.194655
1221.46	0.189413
1222.65	0.190468
1223.83	0.184198
1225.02	0.171395
1226.2	0.169358
1227.39	0.171388
1228.57	0.163059
1229.76	0.154439
1230.94	0.148337
1232.13	0.145801
1233.31	0.14616
1234.5	0.151013
1235.68	0.136586
1236.87	0.125143
1238.05	0.12348
1239.24	0.1208
1240.42	0.11934
1241.61	0.118217
1242.79	0.117153
1243.98	0.103588
1245.16	0.0826153
1246.35	0.0739736
1247.53	0.0686757
1248.72	0.0580925
1249.9	0.04852
1251.09	0.0386226
1252.27	0.0276121
1253.46	0.0227922
1254.64	0.0179517
1255.83	0.0109833
1257.01	0.00844785
1258.2	0.00154554
1259.38	-0.00520769
1260.57	-0.0105657
1261.75	-0.00198864
1262.94	0.0115717
1264.12	0.018952
1265.31	0.0254385
1266.49	0.0367483
1267.68	0.0448768
1268.86	0.0489773
1270.05	0.0540894
1271.23	0.0617031
1272.42	0.0714227
1273.6	0.0760958
1274.79	0.0809579
1275.97	0.0817078
1277.16	0.0920397
1278.34	0.106687
1279.53	0.113842
1280.71	0.1097
1281.9	0.105399
1283.08	0.102529
1284.27	0.098702
1285.45	0.089154
1286.64	0.0874979
1287.82	0.088164
1289.01	0.0790644
1290.19	0.0742602
1291.38	0.0769736
1292.56	0.0892746
1293.75	0.0932637
1294.93	0.0866529
1296.12	0.0806199
1297.3	0.0853447
1298.49	0.0936575
1299.67	0.10067
1300.86	0.113811
1302.04	0.129072
1303.23	0.144136
1304.41	0.160959
1305.6	0.178981
1306.78	0.192178
1307.97	0.19223
1309.15	0.183212
1310.34	0.182907
1311.52	0.188899
1312.71	0.195997
1313.89	0.196856
1315.08	0.193786
1316.26	0.197029
1317.45	0.198322
1318.63	0.195312
1319.82	0.198681
1321	0.200251
1322.19	0.19656
1323.37	0.201781
1324.56	0.212628
1325.74	0.229025
1326.93	0.231945
1328.11	0.24457
1329.3	0.262931
1330.48	0.273521
1331.67	0.284523
1332.85	0.289575
1334.04	0.293305
1335.22	0.29808
1336.41	0.310847
1337.59	0.324109
1338.78	0.331008
1339.96	0.33873
1341.15	0.341063
1342.33	0.341942
1343.52	0.354502
1344.7	0.36629
1345.89	0.368802
1347.07	0.368825
1348.26	0.36989
1349.44	0.376348
1350.63	0.386177
1351.81	0.389937
1353	0.384401
1354.18	0.373023
1355.37	0.364606
1356.55	0.35856
1357.74	0.352352
1358.92	0.345924
1360.11	0.330479
1361.29	0.322478
1362.48	0.316417
1363.66	0.310248
1364.85	0.306349
1366.03	0.317435
1367.22	0.32934
1368.4	0.340539
1369.59	0.354517
1370.77	0.36683
1371.96	0.377546
1373.14	0.385379
1374.33	0.392327
1375.51	0.405189
1376.7	0.423939
1377.88	0.436864
1379.07	0.440563
1380.25	0.443863
1381.44	0.451346
1382.62	0.453007
1383.81	0.442246
1384.99	0.433274
1386.18	0.432152
1387.36	0.435053
1388.55	0.436714
1389.73	0.437422
1390.92	0.434276
1392.1	0.426317
1393.29	0.427283
1394.47	0.428593
1395.66	0.425544
1396.84	0.421525
1398.03	0.419337
1399.21	0.417812
1400.4	0.423733
1401.58	0.434805
1402.77	0.440579
1403.95	0.441579
1405.14	0.438992
1406.32	0.441238
1407.51	0.447617
1408.69	0.453894
1409.88	0.460981
1411.06	0.465364
1412.25	0.465671
1413.43	0.468524
1414.62	0.478036
1415.8	0.48475
1416.99	0.484849
1418.17	0.481369
1419.36	0.473319
1420.54	0.461119
1421.73	0.456515
1422.91	0.459578
1424.1	0.464814
1425.28	0.475327
1426.47	0.487815
1427.65	0.495095
1428.84	0.499443
1430.02	0.507205
1431.21	0.514354
1432.39	0.520422
1433.58	0.528248
1434.76	0.534731
1435.95	0.541541
1437.13	0.553906
1438.32	0.571396
1439.5	0.587459
1440.69	0.598085
1441.87	0.599348
1443.06	0.595764
1444.24	0.590418
1445.43	0.594812
1446.61	0.60933
1447.8	0.620747
1448.98	0.624875
1450.17	0.624983
1451.35	0.628326
1452.54	0.633624
1453.72	0.634802
1454.91	0.636574
1456.09	0.639116
1457.28	0.637628
1458.46	0.637782
1459.65	0.640637
1460.83	0.642858
1462.02	0.651119
1463.2	0.663382
1464.39	0.675785
1465.57	0.68891
1466.76	0.706034
1467.94	0.727727
1469.13	0.751621
1470.31	0.776269
1471.5	0.794851
1472.68	0.806875
1473.87	0.824574
1475.05	0.854507
1476.24	0.885033
1477.42	0.911117
1478.61	0.92903
1479.79	0.936612
1480.98	0.942739
1482.16	0.948225
1483.35	0.947299
1484.53	0.944503
1485.72	0.939162
1486.9	0.931803
1488.09	0.9273
1489.27	0.929503
1490.46	0.927512
1491.64	0.907222
1492.83	0.884784
1494.01	0.869956
1495.2	0.857975
1496.38	0.838598
1497.57	0.808881
1498.75	0.776873
1499.94	0.751792
1501.12	0.728514
1502.31	0.702987
1503.49	0.679921
1504.68	0.6577
1505.86	0.626931
1507.05	0.592712
1508.23	0.572675
1509.42	0.559511
1510.6	0.539641
1511.79	0.518158
1512.97	0.508752
1514.16	0.504726
1515.34	0.502742
1516.53	0.503008
1517.71	0.49886
1518.9	0.494934
1520.08	0.496857
1521.27	0.49734
1522.45	0.498733
1523.64	0.506209
1524.82	0.504749
1526.01	0.495386
1527.19	0.496365
1528.38	0.498656
1529.56	0.496399
1530.75	0.500437
1531.93	0.505176
1533.12	0.50466
1534.3	0.50218
1535.49	0.496825
1536.67	0.490522
1537.86	0.485211
1539.04	0.484849
1540.23	0.489411
1541.41	0.497744
1542.6	0.50434
1543.78	0.497897
1544.97	0.486713
1546.15	0.475767
1547.34	0.463126
1548.52	0.45306
1549.71	0.442415
1550.89	0.43814
1552.08	0.43777
1553.26	0.43299
1554.45	0.426902
1555.63	0.421289
1556.82	0.409196
1558	0.3946
1559.19	0.384861
1560.37	0.379305
1561.56	0.376063
1562.74	0.37376
1563.93	0.370936
1565.11	0.370607
1566.3	0.371669
1567.48	0.365909
1568.67	0.357319
1569.85	0.348698
1571.04	0.343098
1572.22	0.332259
1573.41	0.319341
1574.59	0.309714
1575.78	0.301713
1576.96	0.296316
1578.15	0.289487
1579.33	0.279122
1580.52	0.266691
1581.7	0.252393
1582.89	0.238398
1584.07	0.227626
1585.26	0.224119
1586.44	0.223145
1587.63	0.219848
1588.81	0.218761
1590	0.21759
1591.18	0.212982
1592.37	0.206932
1593.55	0.202161
1594.74	0.196098
1595.92	0.191639
1597.11	0.191412
1598.29	0.189438
1599.48	0.186334
1600.66	0.183788
1601.85	0.18174
1603.03	0.174689
1604.22	0.163825
1605.4	0.154659
1606.59	0.15087
1607.77	0.147524
1608.96	0.140639
1610.14	0.133248
1611.33	0.128546
1612.51	0.122826
1613.7	0.117714
1614.88	0.112716
1616.07	0.106189
1617.25	0.10016
1618.44	0.0913406
1619.62	0.0835471
1620.81	0.0804854
1621.99	0.0751282
1623.18	0.0692675
1624.36	0.0669839
1625.55	0.0641375
1626.73	0.0596327
1627.92	0.0516232
1629.1	0.0447015
1630.29	0.0408583
1631.47	0.0378918
1632.66	0.0372524
1633.84	0.033131
1635.03	0.0306162
1636.21	0.0274093
1637.4	0.0269662
1638.58	0.0323097
1639.77	0.0301237
1640.95	0.0211908
1642.14	0.0087267
1643.32	0.00561995
1644.51	0.0108789
1645.69	0.0120839
1646.88	0.0127472
1648.06	0.0116536
1649.25	0.00384801
1650.43	0.00157977
1651.62	0.00591566
1652.8	0.00585216
1653.99	0.0095521
1655.17	0.0111905
1656.36	0.00853418
1657.54	0.0139183
1658.73	0.0257639
1659.91	0.028285
1661.1	0.0309029
1662.28	0.0391277
1663.47	0.0481201
1664.65	0.0609358
1665.84	0.0761578
1667.02	0.0847097
1668.21	0.0838949
1669.39	0.0848498
1670.58	0.0847345
1671.76	0.0792404
1672.95	0.0791151
1674.13	0.0804515
1675.32	0.0795741
1676.5	0.0807881
1677.69	0.0777267
1678.87	0.0672999
1680.06	0.0557148
1681.24	0.0473281
1682.43	0.0472272
1683.61	0.0400811
1684.8	0.0303925
1685.98	0.0360316
1687.17	0.0348539
1688.35	0.039987
1689.54	0.0444719
1690.72	0.0445741
1691.91	0.0481842
1693.09	0.0543081
1694.28	0.060221
1695.46	0.0626908
1696.65	0.065704
1697.83	0.058989
1699.02	0.0471636
1700.2	0.0445727
1701.39	0.051636
1702.57	0.043987
1703.76	0.0358376
1704.94	0.0298106
1706.13	0.0341136
1707.31	0.0380869
1708.5	0.031588
1709.68	0.0267679
1710.87	0.0228494
1712.05	0.0244885
1713.24	0.024761
1714.42	0.0350471
1715.61	0.0495991
1716.79	0.0549731
1717.98	0.059378
1719.16	0.0625778
1720.35	0.0670265
1721.53	0.0656092
1722.72	0.056226
1723.9	0.0530257
1725.09	0.0567448
1726.27	0.0591144
1727.46	0.0578088
1728.64	0.0574197
1729.83	0.0583643
1731.01	0.052888
1732.2	0.042046
1733.38	0.0406541
1734.57	0.0430315
1735.75	0.0444622
1736.94	0.0471567
1738.12	0.048918
1739.31	0.0495417
1740.49	0.0488948
1741.68	0.0502152
1742.86	0.0458173
1744.05	0.0467954
1745.23	0.0495339
1746.42	0.0493786
1747.6	0.0529445
1748.79	0.0601206
1749.97	0.0637508
1751.16	0.0586355
1752.34	0.0585858
1753.53	0.0556146
1754.71	0.056656
1755.9	0.0595803
1757.08	0.0589099
1758.27	0.0574799
1759.45	0.0577734
1760.64	0.0565292
1761.82	0.0507077
1763.01	0.0460411
1764.19	0.0456178
1765.38	0.0424009
1766.56	0.0366171
1767.75	0.0407383
1768.93	0.0411011
1770.12	0.0384566
1771.3	0.0271645
1772.49	0.0248844
1773.67	0.0286675
1774.86	0.0324878
1776.04	0.03259
1777.23	0.0310762
1778.41	0.0346756
1779.6	0.0318226
1780.78	0.0181652
1781.97	0.0197257
1783.15	0.0176878
1784.34	0.0112998
1785.52	0.00476326
1786.71	0.00860053
1787.89	0.0137818
1789.08	0.0121843
1790.26	0.00730502
1791.45	0.00286014
1792.63	0.00223976
1793.82	0.00209018
1795	0.00515741
