405	0.159205
406.185	0.179077
407.37	0.193978
408.555	0.20815
409.74	0.221567
410.925	0.233621
412.11	0.239536
413.295	0.238923
414.48	0.23571
415.665	0.228921
416.85	0.238016
418.035	0.222957
419.22	0.215009
420.405	0.21132
421.59	0.195438
422.775	0.172543
423.96	0.155568
425.145	0.143491
426.33	0.130125
427.515	0.120626
428.7	0.109754
429.885	0.0987176
431.07	0.0764226
432.255	0.0694754
433.44	0.053358
434.625	0.0436909
435.81	0.0337781
436.995	0.0236772
438.18	0.0196018
439.365	0.0160074
440.55	0.00551486
441.735	0.000737507
442.92	-0.000305701
444.105	0.000917855
445.29	0.00747356
446.475	0.00614032
447.66	0.00193622
448.845	0.000415698
450.03	0.00530816
451.215	0.0138507
452.4	0.0238266
453.585	0.0475184
454.77	0.0657093
455.955	0.0891986
457.14	0.11629
458.325	0.141917
459.51	0.170792
460.695	0.202415
461.88	0.235415
463.065	0.265699
464.25	0.292853
465.435	0.325128
466.62	0.367402
467.805	0.406278
468.99	0.449053
470.175	0.495797
471.36	0.532158
472.545	0.565093
473.73	0.600705
474.915	0.63587
476.1	0.664364
477.285	0.686573
478.47	0.70618
479.655	0.723201
480.84	0.751678
482.025	0.774728
483.21	0.788783
484.395	0.796533
485.58	0.797295
486.765	0.798831
487.95	0.790986
489.135	0.778097
490.32	0.764637
491.505	0.748495
492.69	0.736864
493.875	0.729348
495.06	0.70621
496.245	0.68346
497.43	0.657862
498.615	0.633828
499.8	0.603126
500.985	0.574609
502.17	0.552145
503.355	0.52581
504.54	0.491463
505.725	0.460211
506.91	0.437658
508.095	0.411747
509.28	0.377899
510.465	0.365747
511.65	0.349853
512.835	0.329388
514.02	0.31566
515.205	0.311556
516.39	0.307542
517.575	0.296714
518.76	0.283644
519.945	0.273066
521.13	0.25934
522.315	0.247685
523.5	0.250802
524.685	0.25891
525.87	0.25461
527.055	0.251736
528.24	0.255907
529.424	0.263028
530.61	0.262175
531.795	0.255675
532.98	0.25315
534.165	0.253202
535.35	0.24861
536.535	0.247846
537.72	0.254692
538.905	0.268045
540.09	0.273687
541.275	0.277713
542.46	0.271746
543.645	0.265795
544.83	0.268872
546.014	0.273723
547.199	0.274742
548.384	0.274035
549.569	0.272452
550.754	0.272512
551.939	0.270025
553.124	0.270105
554.309	0.271535
555.494	0.273382
556.679	0.278151
557.864	0.273934
559.049	0.268819
560.234	0.263405
561.419	0.264104
562.604	0.266921
563.789	0.258911
564.974	0.246503
566.159	0.241239
567.344	0.234242
568.529	0.224361
569.714	0.215686
570.899	0.213106
572.084	0.205008
573.269	0.19374
574.454	0.181077
575.639	0.169525
576.824	0.159427
578.009	0.153222
579.194	0.151732
580.379	0.147763
581.564	0.136145
582.749	0.120908
583.934	0.114309
585.119	0.135627
586.304	0.132129
587.489	0.132072
588.674	0.138979
589.859	0.140522
591.044	0.138027
592.229	0.134905
593.414	0.13785
594.599	0.14357
595.784	0.143452
596.969	0.144156
598.154	0.138965
599.339	0.129764
600.524	0.120319
601.709	0.12725
602.894	0.129698
604.079	0.113206
605.264	0.106937
606.449	0.0994432
607.634	0.0903017
608.819	0.0774691
610.004	0.0683523
611.189	0.0686593
612.374	0.0664551
613.559	0.0571047
614.744	0.0482993
615.929	0.036902
617.114	0.0369228
618.299	0.0390114
619.484	0.0416064
620.669	0.0368468
621.854	0.033919
623.039	0.027356
624.224	0.0268296
625.409	0.0242686
626.594	0.019218
627.779	0.0216829
628.964	0.0224577
630.149	0.00912575
631.334	0.00178292
632.519	-0.00250043
633.704	0.000786541
634.889	0.00961063
636.074	0.00782118
637.259	0.00494997
638.444	0.0101616
639.629	0.0155551
640.814	0.0160948
641.999	0.0144367
643.184	0.00400983
644.369	0.0016403
645.554	0.00845104
646.739	0.00479569
647.924	0.0104695
649.109	0.0287419
650.294	0.0419543
651.479	0.0582276
652.664	0.0703239
653.849	0.0670402
655.034	0.0768165
656.219	0.0847067
657.404	0.101313
658.589	0.107914
659.774	0.112617
660.959	0.12541
662.144	0.143588
663.329	0.157257
664.514	0.167098
665.699	0.178448
666.884	0.178406
668.069	0.174462
669.254	0.167385
670.439	0.156745
671.624	0.146636
672.809	0.153221
673.994	0.14383
675.179	0.141077
676.364	0.127784
677.549	0.127829
678.734	0.127502
679.919	0.119294
681.104	0.111388
682.289	0.103981
683.474	0.0961844
684.659	0.0919677
685.844	0.0868529
687.029	0.0874021
688.214	0.0934397
689.399	0.0815381
690.584	0.0740174
691.769	0.0633137
692.954	0.0606877
694.139	0.0589013
695.324	0.0597709
696.509	0.0577972
697.694	0.0633352
698.879	0.0661764
700.064	0.0705553
701.249	0.0759088
702.434	0.0726025
703.619	0.0701627
704.804	0.0728542
705.989	0.0604601
707.174	0.0509232
708.359	0.0595427
709.544	0.0703664
710.729	0.0818658
711.914	0.0854243
713.099	0.0879728
714.284	0.0863797
715.469	0.0852875
716.654	0.0753881
717.839	0.0664661
719.024	0.0610746
720.209	0.0599754
721.394	0.0598251
722.579	0.0574245
723.764	0.0571476
724.949	0.0616222
726.134	0.0681807
727.319	0.0744985
728.504	0.0619823
729.689	0.0570972
730.874	0.0506572
732.059	0.0463839
733.244	0.0486305
734.429	0.0440046
735.614	0.054435
736.799	0.0726813
737.984	0.0774128
739.169	0.0883893
740.354	0.0963672
741.539	0.101096
742.724	0.103064
743.909	0.099705
745.094	0.0942651
746.279	0.0970012
747.464	0.108784
748.649	0.110391
749.834	0.114812
751.019	0.115258
752.204	0.112468
753.389	0.112306
754.574	0.0990755
755.759	0.078352
756.944	0.073002
758.129	0.0558769
759.314	0.0438234
760.499	0.0305587
761.684	0.0325514
762.869	0.0319754
764.054	0.024163
765.239	0.0127266
766.424	0.00293775
767.609	-0.0064128
768.794	-0.0105657
769.979	-0.00299451
771.164	-0.000418524
772.349	0.000934866
773.534	0.0107347
774.719	0.0137375
775.904	0.0122622
777.089	0.0129028
778.274	0.0172344
779.459	0.0280827
780.644	0.0256817
781.829	0.0358405
783.014	0.0437823
784.199	0.0525226
785.384	0.0582281
786.569	0.0753884
787.754	0.0788958
788.939	0.0756821
790.124	0.0784821
791.309	0.0849047
792.494	0.0946916
793.679	0.107585
794.864	0.122334
796.049	0.139589
797.234	0.154891
798.419	0.167292
799.604	0.186525
800.789	0.218372
801.974	0.238057
803.159	0.252926
804.344	0.276361
805.529	0.283254
806.714	0.29837
807.898	0.321562
809.083	0.34136
810.268	0.361523
811.454	0.379613
812.639	0.394504
813.824	0.400675
815.009	0.409613
816.194	0.421236
817.379	0.433264
818.564	0.439639
819.749	0.442134
820.934	0.450194
822.119	0.458643
823.304	0.471515
824.489	0.493038
825.673	0.521431
826.858	0.551165
828.043	0.575793
829.228	0.592406
830.413	0.623657
831.598	0.65441
832.783	0.696456
833.968	0.73592
835.153	0.771565
836.338	0.804324
837.523	0.831123
838.708	0.863734
839.893	0.897738
841.078	0.917788
842.263	0.938366
843.448	0.948225
844.633	0.943789
845.818	0.935954
847.003	0.9327
848.188	0.927876
849.373	0.916057
850.558	0.901721
851.743	0.880413
852.928	0.852485
854.113	0.829988
855.298	0.811405
856.483	0.788161
857.668	0.75912
858.853	0.739085
860.038	0.726499
861.223	0.696316
862.408	0.680047
863.593	0.65872
864.778	0.645223
865.963	0.620023
867.148	0.598161
868.333	0.573153
869.518	0.55305
870.703	0.538093
871.888	0.529215
873.073	0.508234
874.258	0.488565
875.443	0.482564
876.628	0.471078
877.813	0.452791
878.998	0.4407
880.183	0.430475
881.368	0.424857
882.553	0.428447
883.738	0.430988
884.923	0.435995
886.108	0.448388
887.293	0.459631
888.478	0.466759
889.663	0.479666
890.848	0.49152
892.033	0.510127
893.218	0.519026
894.403	0.515785
895.588	0.535026
896.773	0.553595
897.958	0.553206
899.143	0.57669
900.328	0.583674
901.513	0.585454
902.698	0.600131
903.883	0.599699
905.068	0.603999
906.253	0.619985
907.438	0.629036
908.623	0.627069
909.808	0.624967
910.993	0.621217
912.178	0.623709
913.363	0.619164
914.548	0.606572
915.733	0.605542
916.918	0.608562
918.103	0.599118
919.288	0.586906
920.473	0.576478
921.658	0.56651
922.843	0.559403
924.028	0.540809
925.213	0.517371
926.398	0.500111
927.583	0.484858
928.768	0.469379
929.953	0.459627
931.138	0.441363
932.323	0.432226
933.508	0.417074
934.693	0.394091
935.878	0.367539
937.063	0.362142
938.248	0.3523
939.433	0.339754
940.618	0.331712
941.803	0.322867
942.988	0.31918
944.173	0.319714
945.358	0.31506
946.543	0.31214
947.728	0.312541
948.913	0.314939
950.098	0.313938
951.283	0.318565
952.468	0.325141
953.653	0.329881
954.838	0.330495
956.023	0.334972
957.208	0.340334
958.393	0.335036
959.578	0.331362
960.763	0.336899
961.948	0.341868
963.133	0.345195
964.318	0.350124
965.503	0.348539
966.688	0.339964
967.873	0.336654
969.058	0.34129
970.243	0.34655
971.428	0.35037
972.613	0.357859
973.798	0.364843
974.983	0.364485
976.168	0.364898
977.353	0.377487
978.538	0.385325
979.723	0.372047
980.908	0.371097
982.093	0.375141
983.278	0.381475
984.463	0.392818
985.648	0.404745
986.833	0.413436
988.018	0.412789
989.203	0.417463
990.388	0.419054
991.573	0.412202
992.758	0.410261
993.943	0.417072
995.128	0.421193
996.313	0.409963
997.498	0.420949
998.683	0.422668
999.868	0.432611
1001.05	0.430746
1002.24	0.435917
1003.42	0.428552
1004.61	0.418635
1005.79	0.415484
1006.98	0.42115
1008.16	0.427945
1009.35	0.441983
1010.53	0.448831
1011.72	0.462151
1012.9	0.472839
1014.09	0.486086
1015.27	0.501127
1016.46	0.51424
1017.64	0.527193
1018.83	0.544517
1020.01	0.559596
1021.2	0.583213
1022.38	0.611328
1023.57	0.64266
1024.75	0.670093
1025.94	0.687794
1027.12	0.70102
1028.31	0.716666
1029.49	0.736882
1030.68	0.757498
1031.86	0.77695
1033.05	0.79365
1034.23	0.806356
1035.42	0.813962
1036.6	0.816882
1037.79	0.817989
1038.97	0.819504
1040.16	0.823402
1041.34	0.825408
1042.53	0.821378
1043.71	0.814744
1044.9	0.813604
1046.08	0.815909
1047.27	0.808964
1048.45	0.798557
1049.64	0.787478
1050.82	0.769446
1052.01	0.757761
1053.19	0.743392
1054.38	0.729971
1055.56	0.720844
1056.75	0.710854
1057.93	0.691967
1059.12	0.671365
1060.3	0.642306
1061.49	0.625183
1062.67	0.605606
1063.86	0.575888
1065.04	0.559242
1066.23	0.540663
1067.41	0.518762
1068.6	0.501566
1069.78	0.483447
1070.97	0.471493
1072.15	0.457943
1073.34	0.446911
1074.52	0.429767
1075.71	0.424082
1076.89	0.404472
1078.08	0.399591
1079.26	0.390668
1080.45	0.391035
1081.63	0.394525
1082.82	0.392776
1084	0.386861
1085.19	0.373621
1086.37	0.376482
1087.56	0.370847
1088.74	0.371574
1089.93	0.376694
1091.11	0.370065
1092.3	0.376947
1093.48	0.383548
1094.67	0.383957
1095.85	0.384251
1097.04	0.386562
1098.22	0.377268
1099.41	0.367672
1100.59	0.353806
1101.78	0.346034
1102.96	0.351183
1104.15	0.338423
1105.33	0.331527
1106.52	0.324537
1107.7	0.307073
1108.89	0.293942
1110.07	0.27477
1111.26	0.248989
1112.44	0.235172
1113.63	0.220744
1114.81	0.20433
1116	0.189813
1117.18	0.178957
1118.37	0.165446
1119.55	0.153252
1120.74	0.132288
1121.92	0.120339
1123.11	0.109273
1124.29	0.0904866
1125.48	0.0749463
1126.66	0.0725255
1127.85	0.0600083
1129.03	0.0501493
1130.22	0.0405896
1131.4	0.0392426
1132.59	0.0395484
1133.77	0.0418319
1134.96	0.0411154
1136.14	0.0326091
1137.33	0.0254835
1138.51	0.0253974
1139.7	0.0295424
1140.88	0.0293943
1142.07	0.0243898
1143.25	0.0312112
1144.44	0.0263729
1145.62	0.037533
1146.81	0.0413784
1147.99	0.0428311
1149.18	0.0389236
1150.36	0.0364554
1151.55	0.0308615
1152.73	0.0277057
1153.92	0.0392956
1155.1	0.0436139
1156.29	0.0416083
1157.47	0.0345649
1158.66	0.0322548
1159.84	0.0312528
1161.03	0.0219988
1162.21	0.0174374
1163.4	0.00236198
1164.58	-0.00218722
1165.77	0.00288802
1166.95	0.000588891
1168.14	-0.00327588
1169.32	-0.00189131
1170.51	-0.00799122
1171.69	-0.00652934
1172.88	-0.00487917
1174.06	0.00357458
1175.25	0.00596358
1176.43	0.0157814
1177.62	0.0250786
1178.8	0.0335438
1179.99	0.0404725
1181.17	0.0501917
1182.36	0.0577839
1183.54	0.056594
1184.73	0.0525772
1185.91	0.0490039
1187.1	0.048983
1188.28	0.0536082
1189.47	0.0494527
1190.65	0.0467751
1191.84	0.0510356
1193.02	0.0551284
1194.21	0.0445518
1195.39	0.0409933
1196.58	0.0426813
1197.76	0.0423607
1198.95	0.0403391
1200.13	0.0366256
1201.32	0.033438
1202.5	0.0302188
1203.69	0.0307092
1204.87	0.0343587
1206.06	0.0323502
1207.24	0.0316425
1208.43	0.0369415
1209.61	0.0373836
1210.8	0.0375121
1211.98	0.0410346
1213.17	0.0328532
1214.35	0.0295491
1215.54	0.0414928
1216.72	0.0536401
1217.91	0.0627167
1219.09	0.0852872
1220.28	0.0956654
1221.46	0.107878
1222.65	0.113207
1223.83	0.128572
1225.02	0.141252
1226.2	0.146002
1227.39	0.149213
1228.57	0.158822
1229.76	0.183852
1230.94	0.209408
1232.13	0.227528
1233.31	0.221013
1234.5	0.226443
1235.68	0.242668
1236.87	0.243087
1238.05	0.258622
1239.24	0.266238
1240.42	0.270052
1241.61	0.270738
1242.79	0.267798
1243.98	0.267136
1245.16	0.27508
1246.35	0.265947
1247.53	0.258344
1248.72	0.245145
1249.9	0.239721
1251.09	0.248398
1252.27	0.252907
1253.46	0.24588
1254.64	0.245583
1255.83	0.24268
1257.01	0.239334
1258.2	0.236716
1259.38	0.233774
1260.57	0.234538
1261.75	0.229771
1262.94	0.225611
1264.12	0.226687
1265.31	0.227614
1266.49	0.228505
1267.68	0.223163
1268.86	0.211531
1270.05	0.204381
1271.23	0.202434
1272.42	0.20693
1273.6	0.213713
1274.79	0.217984
1275.97	0.223809
1277.16	0.226887
1278.34	0.227223
1279.53	0.231671
1280.71	0.239314
1281.9	0.237602
1283.08	0.240268
1284.27	0.24564
1285.45	0.254211
1286.64	0.272573
1287.82	0.279575
1289.01	0.280625
1290.19	0.267943
1291.38	0.264049
1292.56	0.268281
1293.75	0.275689
1294.93	0.280245
1296.12	0.277441
1297.3	0.284037
1298.49	0.290377
1299.67	0.301713
1300.86	0.305073
1302.04	0.308879
1303.23	0.309082
1304.41	0.306529
1305.6	0.30762
1306.78	0.312005
1307.97	0.319543
1309.15	0.322388
1310.34	0.314337
1311.52	0.300117
1312.71	0.30389
1313.89	0.302507
1315.08	0.299108
1316.26	0.291938
1317.45	0.283668
1318.63	0.284925
1319.82	0.282414
1321	0.272136
1322.19	0.264346
1323.37	0.261115
1324.56	0.252094
1325.74	0.254569
1326.93	0.247258
1328.11	0.255664
1329.3	0.26255
1330.48	0.251032
1331.67	0.263075
1332.85	0.253942
1334.04	0.254342
1335.22	0.253421
1336.41	0.244134
1337.59	0.229351
1338.78	0.223313
1339.96	0.219441
1341.15	0.221633
1342.33	0.217285
1343.52	0.211764
1344.7	0.214469
1345.89	0.214912
1347.07	0.21277
1348.26	0.21053
1349.44	0.208201
1350.63	0.210449
1351.81	0.209476
1353	0.210754
1354.18	0.232151
1355.37	0.246214
1356.55	0.250525
1357.74	0.239796
1358.92	0.250818
1360.11	0.253816
1361.29	0.251533
1362.48	0.243371
1363.66	0.24465
1364.85	0.245892
1366.03	0.240384
1367.22	0.230814
1368.4	0.229206
1369.59	0.233145
1370.77	0.222056
1371.96	0.2094
1373.14	0.205801
1374.33	0.205682
1375.51	0.200828
1376.7	0.186519
1377.88	0.185057
1379.07	0.18906
1380.25	0.190759
1381.44	0.195276
1382.62	0.198663
1383.81	0.207818
1384.99	0.211682
1386.18	0.210145
1387.36	0.214655
1388.55	0.215069
1389.73	0.21446
1390.92	0.211832
1392.1	0.212035
1393.29	0.216691
1394.47	0.221497
1395.66	0.22577
1396.84	0.231217
1398.03	0.237633
1399.21	0.231155
1400.4	0.227958
1401.58	0.229681
1402.77	0.23272
1403.95	0.23509
1405.14	0.230218
1406.32	0.231562
1407.51	0.230889
1408.69	0.228704
1409.88	0.229464
1411.06	0.236515
1412.25	0.23909
1413.43	0.234318
1414.62	0.220763
1415.8	0.216723
1416.99	0.225931
1418.17	0.218584
1419.36	0.219047
1420.54	0.215407
1421.73	0.225592
1422.91	0.226308
1424.1	0.231484
1425.28	0.250582
1426.47	0.267459
1427.65	0.27187
1428.84	0.274321
1430.02	0.282154
1431.21	0.294441
1432.39	0.307887
1433.58	0.321273
1434.76	0.33731
1435.95	0.35856
1437.13	0.374196
1438.32	0.388828
1439.5	0.407291
1440.69	0.431315
1441.87	0.449383
1443.06	0.464996
1444.24	0.484294
1445.43	0.494267
1446.61	0.508879
1447.8	0.525487
1448.98	0.542176
1450.17	0.546956
1451.35	0.556163
1452.54	0.559283
1453.72	0.553033
1454.91	0.552762
1456.09	0.54812
1457.28	0.544002
1458.46	0.537115
1459.65	0.522343
1460.83	0.501561
1462.02	0.48833
1463.2	0.467315
1464.39	0.453209
1465.57	0.425295
1466.76	0.402207
1467.94	0.379765
1469.13	0.356514
1470.31	0.332556
1471.5	0.302709
1472.68	0.283855
1473.87	0.265106
1475.05	0.238366
1476.24	0.21793
1477.42	0.197832
1478.61	0.175396
1479.79	0.158569
1480.98	0.135616
1482.16	0.123764
1483.35	0.11785
1484.53	0.0989287
1485.72	0.0829569
1486.9	0.0757994
1488.09	0.0776381
1489.27	0.0791129
1490.46	0.0624167
1491.64	0.062452
1492.83	0.0475337
1494.01	0.0443976
1495.2	0.0352485
1496.38	0.0245564
1497.57	0.0205265
1498.75	0.0238212
1499.94	0.0226427
1501.12	0.0278271
1502.31	0.0298497
1503.49	0.0295032
1504.68	0.0241109
1505.86	0.0179168
1507.05	0.0133538
1508.23	0.0103466
1509.42	0.0148422
1510.6	0.0124822
1511.79	0.0208039
1512.97	0.0281425
1514.16	0.0315361
1515.34	0.0278648
1516.53	0.021723
1517.71	0.0181555
1518.9	0.0178576
1520.08	0.0175968
1521.27	0.0146593
1522.45	0.00944084
1523.64	0.0128531
1524.82	0.0082599
1526.01	0.00205254
1527.19	0.00929557
1528.38	0.0126866
1529.56	0.0163073
1530.75	0.0192937
1531.93	0.0124034
1533.12	0.00873937
1534.3	0.006477
1535.49	0.0073388
1536.67	0.0351972
1537.86	0.0718211
1539.04	0.0773506
1540.23	0.0783041
1541.41	0.081711
1542.6	0.0861845
1543.78	0.0791159
1544.97	0.0801342
1546.15	0.080811
1547.34	0.0781044
1548.52	0.0813078
1549.71	0.082518
1550.89	0.0824723
1552.08	0.0766963
1553.26	0.0458738
1554.45	0.00925959
1555.63	0.00816791
1556.82	0.00641035
1558	0.00196479
1559.19	-0.0021118
1560.37	-0.0031798
1561.56	-0.00577561
1562.74	-0.00685748
1563.93	-0.00223369
1565.11	0.00321297
1566.3	0.00530351
1567.48	0.0116494
1568.67	0.0182079
1569.85	0.0232864
1571.04	0.0269721
1572.22	0.0266507
1573.41	0.0278728
1574.59	0.028642
1575.78	0.0336481
1576.96	0.0384535
1578.15	0.0396115
1579.33	0.0384707
1580.52	0.0322991
1581.7	0.0269831
1582.89	0.028129
1584.07	0.0282333
1585.26	0.0275943
1586.44	0.0274446
1587.63	0.0278964
1588.81	0.0253195
1590	0.025471
1591.18	0.029053
1592.37	0.0300983
1593.55	0.0337883
1594.74	0.0364538
1595.92	0.0379629
1597.11	0.0412157
1598.29	0.0502421
1599.48	0.0545864
1600.66	0.0526116
1601.85	0.0586724
1603.03	0.065247
1604.22	0.0657313
1605.4	0.0720684
1606.59	0.074322
1607.77	0.0750393
1608.96	0.0758417
1610.14	0.073841
1611.33	0.0745132
1612.51	0.0754157
1613.7	0.0819216
1614.88	0.0810094
1616.07	0.0868086
1617.25	0.0910493
1618.44	0.0903617
1619.62	0.0899108
1620.81	0.0906503
1621.99	0.0897472
1623.18	0.0927473
1624.36	0.0983061
1625.55	0.104973
1626.73	0.10978
1627.92	0.113437
1629.1	0.118879
1630.29	0.117236
1631.47	0.112823
1632.66	0.114824
1633.84	0.120466
1635.03	0.128784
1636.21	0.136298
1637.4	0.144524
1638.58	0.154626
1639.77	0.159494
1640.95	0.157457
1642.14	0.157738
1643.32	0.160127
1644.51	0.159252
1645.69	0.159899
1646.88	0.16399
1648.06	0.171661
1649.25	0.175332
1650.43	0.178966
1651.62	0.182582
1652.8	0.18878
1653.99	0.199229
1655.17	0.19859
1656.36	0.205395
1657.54	0.216065
1658.73	0.224433
1659.91	0.228089
1661.1	0.232703
1662.28	0.236209
1663.47	0.238759
1664.65	0.234126
1665.84	0.234269
1667.02	0.228159
1668.21	0.235091
1669.39	0.234218
1670.58	0.225442
1671.76	0.221127
1672.95	0.209454
1674.13	0.201375
1675.32	0.19186
1676.5	0.183916
1677.69	0.175176
1678.87	0.166473
1680.06	0.164488
1681.24	0.162174
1682.43	0.159814
1683.61	0.162352
1684.8	0.143337
1685.98	0.134895
1687.17	0.134682
1688.35	0.137749
1689.54	0.147229
1690.72	0.154665
1691.91	0.159061
1693.09	0.165241
1694.28	0.170881
1695.46	0.174877
1696.65	0.175158
1697.83	0.175724
1699.02	0.175912
1700.2	0.165979
1701.39	0.164361
1702.57	0.160034
1703.76	0.154384
1704.94	0.143835
1706.13	0.133133
1707.31	0.124422
1708.5	0.118496
1709.68	0.112153
1710.87	0.10603
1712.05	0.102648
1713.24	0.10067
1714.42	0.103919
1715.61	0.0957303
1716.79	0.0991956
1717.98	0.104941
1719.16	0.108477
1720.35	0.11225
1721.53	0.118566
1722.72	0.120188
1723.9	0.120027
1725.09	0.121888
1726.27	0.123228
1727.46	0.123815
1728.64	0.132341
1729.83	0.127549
1731.01	0.125101
1732.2	0.13199
1733.38	0.130398
1734.57	0.124525
1735.75	0.122319
1736.94	0.121392
1738.12	0.118587
1739.31	0.120027
1740.49	0.11623
1741.68	0.116601
1742.86	0.112916
1744.05	0.115168
1745.23	0.106847
1746.42	0.112217
1747.6	0.109883
1748.79	0.106514
1749.97	0.108016
1751.16	0.109447
1752.34	0.104955
1753.53	0.103468
1754.71	0.106497
1755.9	0.0964361
1757.08	0.0952229
1758.27	0.0963718
1759.45	0.0985962
1760.64	0.102112
1761.82	0.0980733
1763.01	0.0934539
1764.19	0.0902408
1765.38	0.083206
1766.56	0.0776069
1767.75	0.0743557
1768.93	0.0713608
1770.12	0.0658045
1771.3	0.0657194
1772.49	0.0694151
1773.67	0.0638087
1774.86	0.0595712
1776.04	0.0490743
1777.23	0.0433853
1778.41	0.0426502
1779.6	0.0360897
1780.78	0.0359572
1781.97	0.03537
1783.15	0.0341603
1784.34	0.0325975
1785.52	0.0319588
1786.71	0.0259663
1787.89	0.0164031
1789.08	0.0156489
1790.26	0.011989
1791.45	0.00926112
1792.63	0.00774581
1793.82	0.00281968
1795	0.00117776
