405	0.122625
406.185	0.134874
407.37	0.14633
408.555	0.15691
409.74	0.165088
410.925	0.169301
412.11	0.171341
413.295	0.172159
414.48	0.171379
415.665	0.172965
416.85	0.175888
418.035	0.175183
419.22	0.169374
420.405	0.161616
421.59	0.151319
422.775	0.145596
423.96	0.142512
425.145	0.13491
426.33	0.120763
427.515	0.105095
428.7	0.0933387
429.885	0.085653
431.07	0.078184
432.255	0.0678827
433.44	0.0605738
434.625	0.0520975
435.81	0.0397176
436.995	0.0295606
438.18	0.0249056
439.365	0.0213329
440.55	0.0185259
441.735	0.0147423
442.92	0.00998917
444.105	0.00393543
445.29	-0.00214786
446.475	-0.00283067
447.66	-0.00337506
448.845	-0.00423104
450.03	-0.00451272
451.215	-0.00507934
452.4	-0.00629367
453.585	-0.00672252
454.77	-0.00277701
455.955	0.0078617
457.14	0.00699301
458.325	0.0106034
459.51	0.0214466
460.695	0.0336314
461.88	0.0468447
463.065	0.0607559
464.25	0.0765498
465.435	0.0968812
466.62	0.116488
467.805	0.141154
468.99	0.165276
470.175	0.191371
471.36	0.221253
472.545	0.253721
473.73	0.287326
474.915	0.321675
476.1	0.359235
477.285	0.398024
478.47	0.430911
479.655	0.458886
480.84	0.493131
482.025	0.529639
483.21	0.564718
484.395	0.600135
485.58	0.631694
486.765	0.654937
487.95	0.673913
489.135	0.692873
490.32	0.709989
491.505	0.722895
492.69	0.733588
493.875	0.739862
495.06	0.74286
496.245	0.739493
497.43	0.734128
498.615	0.728383
499.8	0.716783
500.985	0.696839
502.17	0.672632
503.355	0.648456
504.54	0.625058
505.725	0.600812
506.91	0.575235
508.095	0.552177
509.28	0.52709
510.465	0.502453
511.65	0.475892
512.835	0.450559
514.02	0.423117
515.205	0.396348
516.39	0.37036
517.575	0.346356
518.76	0.326335
519.945	0.310438
521.13	0.298418
522.315	0.286352
523.5	0.272026
524.685	0.25746
525.87	0.247858
527.055	0.240878
528.24	0.229918
529.425	0.219904
530.61	0.210503
531.795	0.200271
532.98	0.192378
534.165	0.189356
535.35	0.188611
536.535	0.190163
537.72	0.189994
538.905	0.185697
540.09	0.182083
541.275	0.176876
542.46	0.173112
543.644	0.175453
544.829	0.180969
546.014	0.183275
547.199	0.184552
548.384	0.188166
549.569	0.19056
550.754	0.194683
551.939	0.20071
553.124	0.203741
554.309	0.20586
555.494	0.210313
556.679	0.211108
557.865	0.212045
559.049	0.213935
560.234	0.219037
561.419	0.22617
562.604	0.22984
563.789	0.226882
564.974	0.221038
566.159	0.217837
567.344	0.216353
568.529	0.213449
569.714	0.210769
570.899	0.204872
572.084	0.197774
573.269	0.192261
574.454	0.185657
575.639	0.179272
576.824	0.176104
578.009	0.173756
579.194	0.168528
580.379	0.161161
581.564	0.152202
582.749	0.147261
583.934	0.14721
585.119	0.143873
586.304	0.138945
587.489	0.136844
588.674	0.135285
589.859	0.135238
591.044	0.135809
592.229	0.13452
593.414	0.131483
594.599	0.127419
595.784	0.122125
596.969	0.117149
598.154	0.111847
599.339	0.102224
600.524	0.0978458
601.709	0.0978983
602.894	0.0952274
604.079	0.0916298
605.264	0.0884522
606.449	0.0856783
607.634	0.0816234
608.819	0.0774135
610.004	0.0755594
611.189	0.0757872
612.374	0.0752406
613.559	0.0727395
614.744	0.0698206
615.929	0.0651644
617.114	0.0656985
618.299	0.0696354
619.484	0.0684457
620.669	0.0634544
621.854	0.0612148
623.039	0.0622889
624.224	0.0633196
625.409	0.0620517
626.594	0.0602688
627.779	0.0601389
628.964	0.0608083
630.149	0.0602444
631.334	0.0575213
632.519	0.0539833
633.704	0.0542486
634.889	0.0572426
636.074	0.0517232
637.259	0.0497518
638.444	0.049916
639.629	0.0482726
640.814	0.0437505
641.999	0.0368577
643.184	0.0306225
644.369	0.0278985
645.554	0.0280199
646.739	0.0271023
647.924	0.0220361
649.109	0.0153654
650.294	0.0144327
651.479	0.0182537
652.664	0.0201289
653.849	0.0170201
655.034	0.0167589
656.219	0.0169188
657.404	0.0189107
658.589	0.0209163
659.774	0.0221085
660.959	0.0219891
662.144	0.0203273
663.329	0.0191681
664.514	0.02038
665.699	0.0220548
666.884	0.0221659
668.069	0.0220661
669.254	0.0212733
670.439	0.0204548
671.624	0.0212421
672.809	0.0238895
673.994	0.0268835
675.179	0.0279182
676.364	0.0295682
677.549	0.0357475
678.734	0.0456714
679.919	0.0556059
681.104	0.0655007
682.289	0.0749088
683.474	0.0817199
684.659	0.0884077
685.844	0.0987864
687.029	0.111155
688.214	0.122349
689.399	0.131834
690.584	0.138813
691.769	0.144355
692.954	0.150093
694.139	0.154262
695.324	0.155172
696.509	0.153634
697.694	0.150522
698.879	0.14974
700.064	0.150033
701.249	0.149184
702.434	0.146931
703.619	0.141442
704.804	0.131488
705.989	0.119413
707.174	0.107306
708.359	0.0940111
709.544	0.0800915
710.729	0.0683042
711.914	0.0562253
713.099	0.04876
714.284	0.0452124
715.469	0.041387
716.654	0.037427
717.839	0.0317404
719.024	0.024891
720.209	0.0174882
721.394	0.0103336
722.579	0.0053399
723.764	0.00330562
724.949	0.00157084
726.134	-0.00220286
727.319	-0.00384564
728.504	-0.00035225
729.689	0.0027628
730.874	0.00470729
732.059	0.00362814
733.244	0.00153653
734.429	-0.00133058
735.614	-0.00465094
736.799	-0.00493088
737.984	-0.0029656
739.169	-0.000577384
740.354	0.00209248
741.539	0.00392622
742.724	0.00465309
743.909	0.00749153
745.094	0.01331
746.279	0.0172879
747.464	0.0170742
748.649	0.0161988
749.834	0.0161167
751.019	0.0170233
752.204	0.0179431
753.389	0.0187618
754.574	0.0192178
755.759	0.0189971
756.944	0.0171407
758.129	0.0126078
759.314	0.00608377
760.499	0.00106479
761.684	-0.000384526
762.869	-0.00080426
764.054	-0.00111801
765.239	-0.000664273
766.424	1.18165e-005
767.609	0.00168408
768.794	0.0041143
769.979	0.00331602
771.164	-0.000449969
772.349	-0.00121788
773.534	0.00158047
774.719	0.00439377
775.904	0.00999987
777.089	0.017717
778.274	0.0247599
779.459	0.0345656
780.644	0.0399972
781.829	0.0394464
783.014	0.038813
784.199	0.0386536
785.384	0.0381055
786.569	0.0371001
787.754	0.036652
788.939	0.0385773
790.124	0.041849
791.309	0.0433932
792.494	0.0423189
793.679	0.0391683
794.864	0.0348657
796.049	0.031942
797.234	0.0297568
798.419	0.0251426
799.604	0.0222069
800.789	0.0233662
801.974	0.0251458
803.159	0.0259855
804.344	0.0230507
805.529	0.0181843
806.714	0.0142963
807.899	0.010585
809.084	0.00576354
810.269	0.00121593
811.454	-0.00138892
812.639	-0.00330414
813.824	-0.00654676
815.009	-0.00998898
816.194	-0.0105657
817.379	-0.00850612
818.564	-0.0073366
819.748	-0.00859791
820.933	-0.0100651
822.118	-0.00758978
823.303	0.00080678
824.488	0.010723
825.673	0.0205418
826.858	0.0318143
828.043	0.0431815
829.228	0.0552616
830.413	0.0692099
831.598	0.0852464
832.784	0.103603
833.969	0.123126
835.154	0.141057
836.339	0.159473
837.523	0.181348
838.708	0.2057
839.893	0.228702
841.078	0.247848
842.263	0.267134
843.448	0.289695
844.633	0.31281
845.818	0.334162
847.003	0.352499
848.188	0.366773
849.373	0.378067
850.558	0.388447
851.743	0.398675
852.928	0.408087
854.113	0.416742
855.298	0.426548
856.483	0.437771
857.668	0.448223
858.853	0.461044
860.038	0.477399
861.223	0.49225
862.408	0.506827
863.593	0.52927
864.778	0.555162
865.963	0.585467
867.148	0.620919
868.333	0.660692
869.518	0.698604
870.703	0.734507
871.888	0.770536
873.073	0.80528
874.258	0.836275
875.443	0.86371
876.628	0.888158
877.813	0.909417
878.998	0.927518
880.183	0.940774
881.368	0.946954
882.553	0.948225
883.738	0.947412
884.923	0.942653
886.108	0.932094
887.293	0.917767
888.478	0.904611
889.663	0.889098
890.848	0.870465
892.033	0.848667
893.218	0.827494
894.403	0.808242
895.588	0.787201
896.773	0.763804
897.958	0.738619
899.143	0.714587
900.328	0.688398
901.513	0.661615
902.698	0.636028
903.883	0.609104
905.068	0.582835
906.253	0.558161
907.438	0.535517
908.623	0.51178
909.808	0.487322
910.993	0.465071
912.178	0.444447
913.363	0.428274
914.548	0.417803
915.733	0.40786
916.918	0.395466
918.103	0.38459
919.288	0.374644
920.473	0.363983
921.658	0.357322
922.843	0.355071
924.028	0.353919
925.213	0.352903
926.398	0.354307
927.583	0.357017
928.768	0.360737
929.953	0.365207
931.138	0.370795
932.323	0.374741
933.508	0.380944
934.693	0.398196
935.878	0.421905
937.063	0.439687
938.248	0.455674
939.433	0.470113
940.618	0.486912
941.803	0.499641
942.988	0.512684
944.173	0.523052
945.358	0.539481
946.543	0.558264
947.728	0.573453
948.913	0.585902
950.098	0.596303
951.283	0.601078
952.468	0.59945
953.653	0.596448
954.838	0.593728
956.023	0.595118
957.208	0.596774
958.393	0.590929
959.578	0.581012
960.763	0.568235
961.948	0.552456
963.133	0.53288
964.318	0.510562
965.503	0.489553
966.688	0.469443
967.873	0.448108
969.058	0.427246
970.243	0.408003
971.428	0.387577
972.613	0.366309
973.798	0.345578
974.983	0.322316
976.168	0.300169
977.353	0.283154
978.538	0.269032
979.723	0.258695
980.908	0.251823
982.093	0.24784
983.278	0.244624
984.463	0.237353
985.648	0.230788
986.833	0.232946
988.018	0.236387
989.203	0.241779
990.388	0.243485
991.573	0.240951
992.758	0.239436
993.943	0.240818
995.128	0.243938
996.313	0.24874
997.498	0.254132
998.683	0.258339
999.868	0.260693
1001.05	0.260414
1002.24	0.262628
1003.42	0.266743
1004.61	0.264511
1005.79	0.261145
1006.98	0.25676
1008.16	0.255838
1009.35	0.261624
1010.53	0.267322
1011.72	0.267783
1012.9	0.266216
1014.09	0.264627
1015.27	0.261625
1016.46	0.260224
1017.64	0.25803
1018.83	0.25685
1020.01	0.256639
1021.2	0.255556
1022.38	0.257317
1023.57	0.263605
1024.75	0.269553
1025.94	0.271255
1027.12	0.269883
1028.31	0.271495
1029.49	0.276018
1030.68	0.279362
1031.86	0.284436
1033.05	0.291317
1034.23	0.296568
1035.42	0.301551
1036.6	0.306658
1037.79	0.309788
1038.97	0.312843
1040.16	0.315068
1041.34	0.312155
1042.53	0.307583
1043.71	0.306976
1044.9	0.3088
1046.08	0.308244
1047.27	0.309839
1048.45	0.317295
1049.64	0.322407
1050.82	0.326293
1052.01	0.335583
1053.19	0.346578
1054.38	0.357641
1055.56	0.369206
1056.75	0.383029
1057.93	0.397753
1059.12	0.414403
1060.3	0.434857
1061.49	0.458103
1062.67	0.481519
1063.86	0.506444
1065.04	0.528752
1066.23	0.550681
1067.41	0.578706
1068.6	0.606624
1069.78	0.629392
1070.97	0.650583
1072.15	0.673695
1073.34	0.697309
1074.52	0.717883
1075.71	0.736997
1076.89	0.760514
1078.08	0.78128
1079.26	0.79501
1080.45	0.806728
1081.63	0.817999
1082.82	0.827261
1084	0.83096
1085.19	0.833396
1086.37	0.827958
1087.56	0.823835
1088.74	0.820574
1089.93	0.818602
1091.11	0.809405
1092.3	0.803257
1093.48	0.796585
1094.67	0.781224
1095.85	0.763208
1097.04	0.749984
1098.22	0.736227
1099.41	0.717054
1100.59	0.70304
1101.78	0.688305
1102.96	0.670803
1104.15	0.659321
1105.33	0.651831
1106.52	0.636288
1107.7	0.619362
1108.89	0.609091
1110.07	0.594314
1111.26	0.579307
1112.44	0.562911
1113.63	0.550536
1114.81	0.53593
1116	0.518807
1117.18	0.508728
1118.37	0.496693
1119.55	0.493055
1120.74	0.490746
1121.92	0.47913
1123.11	0.4672
1124.29	0.456865
1125.48	0.449019
1126.66	0.441896
1127.85	0.444295
1129.03	0.442497
1130.22	0.443634
1131.4	0.444436
1132.59	0.440504
1133.77	0.442006
1134.96	0.446567
1136.14	0.452696
1137.33	0.445619
1138.51	0.437735
1139.7	0.437714
1140.88	0.434933
1142.07	0.432289
1143.25	0.423114
1144.44	0.414741
1145.62	0.40525
1146.81	0.394907
1147.99	0.384207
1149.18	0.371201
1150.36	0.36462
1151.55	0.353495
1152.73	0.33634
1153.92	0.314768
1155.1	0.299679
1156.29	0.287186
1157.47	0.273135
1158.66	0.253076
1159.84	0.233814
1161.03	0.217064
1162.21	0.19483
1163.4	0.171311
1164.58	0.153728
1165.77	0.136115
1166.95	0.118762
1168.14	0.101838
1169.32	0.087095
1170.51	0.0689263
1171.69	0.053495
1172.88	0.0427482
1174.06	0.0281734
1175.25	0.0188689
1176.43	0.0129456
1177.62	0.0083986
1178.8	0.002518
1179.99	0.00170597
1181.17	0.000883282
1182.36	0.000459702
1183.54	-0.000576199
1184.73	-0.00165182
1185.91	-0.00147318
1187.1	-0.0010625
1188.28	0.00412977
1189.47	0.00936087
1190.65	0.013565
1191.84	0.0132483
1193.02	0.0100772
1194.21	0.00933587
1195.39	0.00959272
1196.58	0.00994873
1197.76	0.00836214
1198.95	0.00660501
1200.13	0.00280298
1201.32	0.000891802
1202.5	-8.79664e-005
1203.69	-0.000158367
1204.87	-0.000389261
1206.06	-0.00185966
1207.24	-0.00432877
1208.43	-0.00652295
1209.61	-0.00551814
1210.8	-0.00347762
1211.98	-0.00167265
1213.17	-0.000634319
1214.35	0.000665206
1215.54	0.00292152
1216.72	0.00274149
1217.91	0.00767291
1219.09	0.0136295
1220.28	0.0170574
1221.46	0.0189317
1222.65	0.0258996
1223.83	0.0369809
1225.02	0.0443215
1226.2	0.0499897
1227.39	0.0554582
1228.57	0.0587808
1229.76	0.0612196
1230.94	0.0667415
1232.13	0.0718439
1233.31	0.0763183
1234.5	0.0860597
1235.68	0.0924225
1236.87	0.0944367
1238.05	0.0945226
1239.24	0.0939893
1240.42	0.0862202
1241.61	0.0751978
1242.79	0.0665293
1243.98	0.0605711
1245.16	0.0567927
1246.35	0.0555694
1247.53	0.0567096
1248.72	0.0544746
1249.9	0.0520974
1251.09	0.0479213
1252.27	0.0412664
1253.46	0.0339271
1254.64	0.0308943
1255.83	0.030827
1257.01	0.0313403
1258.2	0.0343048
1259.38	0.0405345
1260.57	0.0500714
1261.75	0.0603634
1262.94	0.0692404
1264.12	0.079186
1265.31	0.0905833
1266.49	0.103601
1267.68	0.117447
1268.86	0.129821
1270.05	0.140826
1271.23	0.15031
1272.42	0.159381
1273.6	0.17044
1274.79	0.181152
1275.97	0.190865
1277.16	0.198113
1278.34	0.20247
1279.53	0.208504
1280.71	0.208686
1281.9	0.207892
1283.08	0.20693
1284.27	0.205313
1285.45	0.203282
1286.64	0.203734
1287.82	0.20578
1289.01	0.208558
1290.19	0.207791
1291.38	0.200642
1292.56	0.193856
1293.75	0.190622
1294.93	0.188533
1296.12	0.184381
1297.3	0.182036
1298.49	0.184278
1299.67	0.184608
1300.86	0.182372
1302.04	0.18091
1303.23	0.18122
1304.41	0.180774
1305.6	0.180704
1306.78	0.181747
1307.97	0.184763
1309.15	0.189112
1310.34	0.191743
1311.52	0.193277
1312.71	0.195872
1313.89	0.197233
1315.08	0.196594
1316.26	0.197638
1317.45	0.200675
1318.63	0.201386
1319.82	0.197505
1321	0.192822
1322.19	0.189484
1323.37	0.18766
1324.56	0.186067
1325.74	0.186796
1326.93	0.191381
1328.11	0.197183
1329.3	0.203045
1330.48	0.201755
1331.67	0.202726
1332.85	0.203724
1334.04	0.202935
1335.22	0.208194
1336.41	0.215975
1337.59	0.226464
1338.78	0.232143
1339.96	0.234802
1341.15	0.236968
1342.33	0.241504
1343.52	0.244795
1344.7	0.245599
1345.89	0.244656
1347.07	0.246365
1348.26	0.251798
1349.44	0.256228
1350.63	0.259952
1351.81	0.260581
1353	0.261901
1354.18	0.262588
1355.37	0.264284
1356.55	0.266939
1357.74	0.273683
1358.92	0.279145
1360.11	0.279137
1361.29	0.279515
1362.48	0.281439
1363.66	0.28078
1364.85	0.276907
1366.03	0.276497
1367.22	0.276317
1368.4	0.273089
1369.59	0.270194
1370.77	0.268
1371.96	0.264016
1373.14	0.259007
1374.33	0.254163
1375.51	0.249383
1376.7	0.247204
1377.88	0.246122
1379.07	0.240849
1380.25	0.235667
1381.44	0.233926
1382.62	0.232553
1383.81	0.23123
1384.99	0.23151
1386.18	0.231979
1387.36	0.22793
1388.55	0.222709
1389.73	0.220857
1390.92	0.222201
1392.1	0.223804
1393.29	0.223107
1394.47	0.22153
1395.66	0.222489
1396.84	0.223244
1398.03	0.224834
1399.21	0.228727
1400.4	0.230773
1401.58	0.229848
1402.77	0.227171
1403.95	0.226857
1405.14	0.229219
1406.32	0.229733
1407.51	0.230389
1408.69	0.231526
1409.88	0.230162
1411.06	0.228593
1412.25	0.2295
1413.43	0.233249
1414.62	0.236334
1415.8	0.235566
1416.99	0.235941
1418.17	0.238857
1419.36	0.242832
1420.54	0.245801
1421.73	0.248018
1422.91	0.254289
1424.1	0.260329
1425.28	0.259743
1426.47	0.257775
1427.65	0.260253
1428.84	0.263603
1430.02	0.26568
1431.21	0.266674
1432.39	0.269127
1433.58	0.272675
1434.76	0.274315
1435.95	0.275845
1437.13	0.279368
1438.32	0.283119
1439.5	0.285614
1440.69	0.290265
1441.87	0.298538
1443.06	0.30771
1444.24	0.312309
1445.43	0.314867
1446.61	0.316688
1447.8	0.322459
1448.98	0.3312
1450.17	0.33409
1451.35	0.336329
1452.54	0.341599
1453.72	0.347113
1454.91	0.354334
1456.09	0.365478
1457.28	0.377793
1458.46	0.389423
1459.65	0.40353
1460.83	0.420715
1462.02	0.437796
1463.2	0.45773
1464.39	0.477564
1465.57	0.494371
1466.76	0.515529
1467.94	0.542208
1469.13	0.568407
1470.31	0.594644
1471.5	0.619554
1472.68	0.640029
1473.87	0.65973
1475.05	0.680337
1476.24	0.699246
1477.42	0.715549
1478.61	0.731704
1479.79	0.745682
1480.98	0.755826
1482.16	0.763344
1483.35	0.768992
1484.53	0.7699
1485.72	0.765418
1486.9	0.756815
1488.09	0.74333
1489.27	0.728042
1490.46	0.70918
1491.64	0.686542
1492.83	0.662668
1494.01	0.638508
1495.2	0.613951
1496.38	0.586397
1497.57	0.55813
1498.75	0.530578
1499.94	0.501449
1501.12	0.473052
1502.31	0.447028
1503.49	0.422179
1504.68	0.396599
1505.86	0.37319
1507.05	0.354084
1508.23	0.336673
1509.42	0.317081
1510.6	0.297323
1511.79	0.279638
1512.97	0.266509
1514.16	0.255695
1515.34	0.245234
1516.53	0.238587
1517.71	0.232515
1518.9	0.225014
1520.08	0.219522
1521.27	0.218305
1522.45	0.218081
1523.64	0.216517
1524.82	0.215391
1526.01	0.218478
1527.19	0.222742
1528.38	0.22363
1529.56	0.223569
1530.75	0.223176
1531.93	0.222459
1533.12	0.217391
1534.3	0.213255
1535.49	0.213065
1536.67	0.211238
1537.86	0.208667
1539.04	0.206363
1540.23	0.204668
1541.41	0.202546
1542.6	0.198162
1543.78	0.194357
1544.97	0.193876
1546.15	0.192776
1547.34	0.189297
1548.52	0.185337
1549.71	0.18552
1550.89	0.18389
1552.08	0.178332
1553.26	0.175602
1554.45	0.172747
1555.63	0.169899
1556.82	0.166652
1558	0.162211
1559.19	0.158123
1560.37	0.154181
1561.56	0.148447
1562.74	0.143634
1563.93	0.141428
1565.11	0.137606
1566.3	0.132009
1567.48	0.127385
1568.67	0.124101
1569.85	0.119359
1571.04	0.116394
1572.22	0.11419
1573.41	0.110699
1574.59	0.108175
1575.78	0.105408
1576.96	0.100658
1578.15	0.095332
1579.33	0.0889989
1580.52	0.0828076
1581.7	0.0794889
1582.89	0.0780351
1584.07	0.0743312
1585.26	0.0707238
1586.44	0.0686858
1587.63	0.0671945
1588.81	0.0653834
1590	0.0635871
1591.18	0.0602602
1592.37	0.0567764
1593.55	0.0547771
1594.74	0.0537001
1595.92	0.0529701
1597.11	0.0503518
1598.29	0.0480102
1599.48	0.0467686
1600.66	0.046619
1601.85	0.0468972
1603.03	0.0466197
1604.22	0.0452059
1605.4	0.0431047
1606.59	0.0412834
1607.77	0.0402534
1608.96	0.0396289
1610.14	0.0394428
1611.33	0.0397717
1612.51	0.0403246
1613.7	0.0397864
1614.88	0.0390501
1616.07	0.0368493
1617.25	0.0332903
1618.44	0.0305479
1619.62	0.0275766
1620.81	0.0233505
1621.99	0.0209431
1623.18	0.0193964
1624.36	0.0172277
1625.55	0.0145348
1626.73	0.0112931
1627.92	0.00861237
1629.1	0.00800611
1630.29	0.00892621
1631.47	0.00501822
1632.66	0.00322348
1633.84	0.00221566
1635.03	0.000609637
1636.21	-0.000620945
1637.4	-0.00211162
1638.58	-0.0042241
1639.77	-0.00688543
1640.95	-0.00782037
1642.14	-0.00570929
1643.32	-0.00380159
1644.51	-0.00169162
1645.69	0.00108509
1646.88	0.00657164
1648.06	0.0150775
1649.25	0.0234778
1650.43	0.0295813
1651.62	0.034623
1652.8	0.0418902
1653.99	0.0464768
1655.17	0.0521737
1656.36	0.0594827
1657.54	0.068702
1658.73	0.0736022
1659.91	0.0777108
1661.1	0.0807689
1662.28	0.0824137
1663.47	0.0835224
1664.65	0.0832314
1665.84	0.0848053
1667.02	0.0888625
1668.21	0.0899465
1669.39	0.0938177
1670.58	0.100291
1671.76	0.104558
1672.95	0.108622
1674.13	0.108691
1675.32	0.110374
1676.5	0.114578
1677.69	0.118588
1678.87	0.120135
1680.06	0.118557
1681.24	0.116076
1682.43	0.112951
1683.61	0.110329
1684.8	0.108894
1685.98	0.104265
1687.17	0.10084
1688.35	0.0955125
1689.54	0.0910338
1690.72	0.0882457
1691.91	0.0846333
1693.09	0.0795469
1694.28	0.0747064
1695.46	0.0722704
1696.65	0.0702877
1697.83	0.0675421
1699.02	0.0641351
1700.2	0.0587278
1701.39	0.0552891
1702.57	0.0523764
1703.76	0.0492356
1704.94	0.0471874
1706.13	0.0419093
1707.31	0.0371717
1708.5	0.0336609
1709.68	0.0285037
1710.87	0.0230704
1712.05	0.0199905
1713.24	0.0200617
1714.42	0.0228378
1715.61	0.0246396
1716.79	0.0271479
1717.98	0.0281359
1719.16	0.0268712
1720.35	0.0255663
1721.53	0.0253441
1722.72	0.0281615
1723.9	0.0310182
1725.09	0.0317677
1726.27	0.0327293
1727.46	0.0375486
1728.64	0.0378721
1729.83	0.0386763
1731.01	0.0362532
1732.2	0.0334215
1733.38	0.0330984
1734.57	0.0325079
1735.75	0.0337151
1736.94	0.0366209
1738.12	0.0390174
1739.31	0.0371881
1740.49	0.0351184
1741.68	0.0358134
1742.86	0.0350958
1744.05	0.0302096
1745.23	0.0284159
1746.42	0.0265497
1747.6	0.0275971
1748.79	0.0268623
1749.97	0.0249782
1751.16	0.0257826
1752.34	0.0224504
1753.53	0.0204919
1754.71	0.0181681
1755.9	0.0189129
1757.08	0.0163427
1758.27	0.0165966
1759.45	0.0177569
1760.64	0.017981
1761.82	0.01567
1763.01	0.0115206
1764.19	0.010232
1765.38	0.0104675
1766.56	0.0082113
1767.75	0.0060029
1768.93	0.0055329
1770.12	0.00227455
1771.3	-0.000409299
1772.49	-0.00307002
1773.67	-0.00596112
1774.86	-0.00831806
1776.04	-0.00874014
1777.23	-0.00820101
1778.41	-0.00607791
1779.6	-0.00370776
1780.78	-0.00143705
1781.97	-0.00251561
1783.15	0.000117731
1784.34	-0.00110148
1785.52	-0.00185424
1786.71	-0.0014296
1787.89	-0.0010194
1789.08	0.000771866
1790.26	0.00213687
1791.45	0.00206951
1792.63	0.000323791
1793.82	-0.00120142
1795	-0.00386678
