405	0.189333
406.185	0.205336
407.37	0.2192
408.555	0.231173
409.74	0.241247
410.925	0.249285
412.11	0.254412
413.295	0.257605
414.48	0.260938
415.665	0.262646
416.85	0.26078
418.035	0.254581
419.22	0.247598
420.405	0.239201
421.59	0.228343
422.775	0.215527
423.96	0.201165
425.145	0.186218
426.33	0.170742
427.515	0.153513
428.7	0.137597
429.885	0.120013
431.07	0.102682
432.255	0.088829
433.44	0.0746789
434.625	0.059414
435.81	0.0453049
436.995	0.0343545
438.18	0.0259404
439.365	0.0183086
440.55	0.0115138
441.735	0.00514993
442.92	-0.000376326
444.105	-0.00289911
445.29	-0.00429997
446.475	-0.00637433
447.66	-0.00709093
448.845	-0.00577079
450.03	-0.00282293
451.215	0.00076311
452.4	0.00480518
453.585	0.0120704
454.77	0.0223193
455.955	0.0348158
457.14	0.0459766
458.325	0.0594691
459.51	0.0748049
460.695	0.0933953
461.88	0.114781
463.065	0.137101
464.25	0.159772
465.435	0.184461
466.62	0.212243
467.805	0.239011
468.99	0.267844
470.175	0.296488
471.36	0.32484
472.545	0.353369
473.73	0.380028
474.915	0.404841
476.1	0.427303
477.285	0.447215
478.47	0.465058
479.655	0.479095
480.84	0.488925
482.025	0.49692
483.21	0.500987
484.395	0.503068
485.58	0.500881
486.765	0.494302
487.95	0.483408
489.135	0.469577
490.32	0.453834
491.505	0.435062
492.69	0.412546
493.875	0.389666
495.06	0.363269
496.245	0.340285
497.43	0.315322
498.615	0.291405
499.8	0.265963
500.985	0.240285
502.17	0.216462
503.355	0.193587
504.54	0.17126
505.725	0.151136
506.91	0.133096
508.095	0.117522
509.28	0.102445
510.465	0.0894586
511.65	0.0800548
512.835	0.071418
514.02	0.065766
515.205	0.0594081
516.39	0.0540002
517.575	0.0497774
518.76	0.0472007
519.945	0.0475045
521.13	0.0458076
522.315	0.044478
523.5	0.0442368
524.685	0.0453888
525.87	0.048424
527.055	0.0485043
528.24	0.0509538
529.425	0.0537098
530.61	0.0559569
531.795	0.0586736
532.98	0.0615985
534.165	0.0645338
535.35	0.0682083
536.535	0.069002
537.72	0.0708673
538.905	0.0713331
540.09	0.0753732
541.275	0.0778355
542.46	0.0795581
543.644	0.0815949
544.829	0.082877
546.014	0.0837526
547.199	0.0836285
548.384	0.0819844
549.569	0.0823945
550.754	0.0872218
551.939	0.0875242
553.124	0.0876686
554.309	0.0854583
555.494	0.0846605
556.679	0.0834138
557.865	0.0818889
559.049	0.0790125
560.234	0.0760849
561.419	0.0728303
562.604	0.0691661
563.789	0.0662129
564.974	0.0637239
566.159	0.0616179
567.344	0.0595824
568.529	0.057706
569.714	0.0492946
570.899	0.0438384
572.084	0.039305
573.269	0.0358367
574.454	0.033921
575.639	0.0321446
576.824	0.0299169
578.009	0.0276973
579.194	0.0262061
580.379	0.0260022
581.564	0.0260249
582.749	0.0245363
583.934	0.022678
585.119	0.0216952
586.304	0.0203608
587.489	0.0186502
588.674	0.0160329
589.859	0.0150264
591.044	0.01549
592.229	0.01502
593.414	0.0122348
594.599	0.00928024
595.784	0.0083957
596.969	0.00778526
598.154	0.00670484
599.339	0.00450145
600.524	0.00245374
601.709	0.000385086
602.894	-0.000398616
604.079	-0.000473553
605.264	-0.00123493
606.449	-0.00140343
607.634	-0.000694619
608.819	-0.00142449
610.004	-0.00332745
611.189	-0.00359309
612.374	-0.00196469
613.559	-0.000605649
614.744	0.000171706
615.929	0.000376586
617.114	0.00051803
618.299	-0.000618708
619.484	-0.000238425
620.669	0.000632943
621.854	0.00180227
623.039	0.0021012
624.224	0.00237656
625.409	0.00370697
626.594	0.00423669
627.779	0.0048198
628.964	0.00679911
630.149	0.00701894
631.334	0.00828713
632.519	0.0110709
633.704	0.0126413
634.889	0.0157127
636.074	0.0175814
637.259	0.021432
638.444	0.0254503
639.629	0.0289944
640.814	0.032697
641.999	0.0370492
643.184	0.0427108
644.369	0.0488249
645.554	0.0554405
646.739	0.0626229
647.924	0.0687734
649.109	0.0770982
650.294	0.0854137
651.479	0.0936366
652.664	0.104035
653.849	0.114348
655.034	0.124699
656.219	0.134488
657.404	0.144613
658.589	0.15448
659.774	0.163639
660.959	0.172217
662.144	0.179696
663.329	0.185854
664.514	0.191541
665.699	0.197084
666.884	0.20134
668.069	0.20343
669.254	0.204746
670.439	0.202752
671.624	0.200537
672.809	0.196385
673.994	0.189878
675.179	0.183473
676.364	0.174755
677.549	0.166205
678.734	0.156973
679.919	0.146947
681.104	0.136986
682.289	0.126723
683.474	0.11536
684.659	0.104256
685.844	0.0956742
687.029	0.0872729
688.214	0.0800497
689.399	0.0747664
690.584	0.0672114
691.769	0.0606243
692.954	0.0575935
694.139	0.0535423
695.324	0.0500414
696.509	0.0475522
697.694	0.0449858
698.879	0.0436498
700.064	0.0426062
701.249	0.0421637
702.434	0.0434154
703.619	0.0441006
704.804	0.0428937
705.989	0.0421811
707.174	0.0414579
708.359	0.0402604
709.544	0.0393037
710.729	0.0376644
711.914	0.0359478
713.099	0.034862
714.284	0.0341469
715.469	0.0332395
716.654	0.0325029
717.839	0.0319188
719.024	0.0317038
720.209	0.0307792
721.394	0.0294946
722.579	0.0291027
723.764	0.0291478
724.949	0.0286833
726.134	0.02817
727.319	0.0281928
728.504	0.0286376
729.689	0.0309381
730.874	0.0339058
732.059	0.0356371
733.244	0.0362562
734.429	0.0363263
735.614	0.0368106
736.799	0.0367963
737.984	0.0387537
739.169	0.0391919
740.354	0.0384764
741.539	0.0383589
742.724	0.0392058
743.909	0.0396983
745.094	0.0391254
746.279	0.0386086
747.464	0.0384639
748.649	0.0378264
749.834	0.0374991
751.019	0.0385043
752.204	0.0406463
753.389	0.0415676
754.574	0.0434759
755.759	0.0455763
756.944	0.0454299
758.129	0.0481366
759.314	0.0519245
760.499	0.0547873
761.684	0.0566513
762.869	0.058774
764.054	0.062283
765.239	0.0659955
766.424	0.0694173
767.609	0.0720954
768.794	0.0745813
769.979	0.0777871
771.164	0.0800102
772.349	0.0827779
773.534	0.085166
774.719	0.0873783
775.904	0.0894116
777.089	0.0895269
778.274	0.0871872
779.459	0.0874865
780.644	0.0876619
781.829	0.0893353
783.014	0.0888727
784.199	0.0891316
785.384	0.0903246
786.569	0.0925912
787.754	0.0941416
788.939	0.0972466
790.124	0.102401
791.309	0.109972
792.494	0.120279
793.679	0.132066
794.864	0.14602
796.049	0.163303
797.234	0.183319
798.419	0.205054
799.604	0.227563
800.789	0.248318
801.974	0.270678
803.159	0.293413
804.344	0.316517
805.529	0.339736
806.714	0.362161
807.899	0.382076
809.084	0.401956
810.269	0.417486
811.454	0.42926
812.639	0.440742
813.824	0.451098
815.009	0.460265
816.194	0.46714
817.379	0.473479
818.564	0.48237
819.748	0.493724
820.933	0.506559
822.118	0.521042
823.303	0.537478
824.488	0.556067
825.673	0.578291
826.858	0.60315
828.043	0.629561
829.228	0.66028
830.413	0.696059
831.598	0.729586
832.784	0.762688
833.969	0.797585
835.154	0.82946
836.339	0.859035
837.523	0.886632
838.708	0.908386
839.893	0.926094
841.078	0.938865
842.263	0.946205
843.448	0.948225
844.633	0.944841
845.818	0.936083
847.003	0.922424
848.188	0.902796
849.373	0.878554
850.558	0.852082
851.743	0.82094
852.928	0.786022
854.113	0.749856
855.298	0.709973
856.483	0.668345
857.668	0.6274
858.853	0.586098
860.038	0.543413
861.223	0.502074
862.408	0.461048
863.593	0.422828
864.778	0.384181
865.963	0.345498
867.148	0.310436
868.333	0.277338
869.518	0.246733
870.703	0.218955
871.888	0.193417
873.073	0.171102
874.258	0.151781
875.443	0.136706
876.628	0.124652
877.813	0.115199
878.998	0.109018
880.183	0.105413
881.368	0.103013
882.553	0.102987
883.738	0.106909
884.923	0.113198
886.108	0.120236
887.293	0.12716
888.478	0.137424
889.663	0.148987
890.848	0.162704
892.033	0.177425
893.218	0.190776
894.403	0.204849
895.588	0.219495
896.773	0.23239
897.958	0.24526
899.143	0.258719
900.328	0.27082
901.513	0.281298
902.698	0.291533
903.883	0.300908
905.068	0.309263
906.253	0.315643
907.438	0.321318
908.623	0.324626
909.808	0.32584
910.993	0.326125
912.178	0.323904
913.363	0.3178
914.548	0.30974
915.733	0.300554
916.918	0.289304
918.103	0.276067
919.288	0.261453
920.473	0.245598
921.658	0.227703
922.843	0.208021
924.028	0.188633
925.213	0.16825
926.398	0.146114
927.583	0.125374
928.768	0.104558
929.953	0.0854959
931.138	0.0678676
932.323	0.053223
933.508	0.0398782
934.693	0.0265889
935.878	0.0144724
937.063	0.00711558
938.248	-0.00062714
939.433	-0.0055736
940.618	-0.00886689
941.803	-0.0105657
942.988	-0.0101533
944.173	-0.00776829
945.358	-0.00555188
946.543	-0.00152116
947.728	0.00168279
948.913	0.00724526
950.098	0.0126907
951.283	0.0197108
952.468	0.0283077
953.653	0.0378572
954.838	0.0467057
956.023	0.056782
957.208	0.0651855
958.393	0.0724688
959.578	0.0805129
960.763	0.0877555
961.948	0.0942799
963.133	0.100189
964.318	0.104663
965.503	0.109037
966.688	0.112112
967.873	0.11304
969.058	0.113333
970.243	0.111814
971.428	0.109251
972.613	0.106323
973.798	0.102808
974.983	0.100207
976.168	0.0990793
977.353	0.0969685
978.538	0.0943881
979.723	0.0916061
980.908	0.0886249
982.093	0.0860496
983.278	0.0850532
984.463	0.0833917
985.648	0.0842654
986.833	0.0841852
988.018	0.0834529
989.203	0.0837886
990.388	0.0839703
991.573	0.0833341
992.758	0.0812974
993.943	0.0793536
995.128	0.0775298
996.313	0.0767687
997.498	0.0754084
998.683	0.0745128
999.868	0.0756436
1001.05	0.0776056
1002.24	0.0790544
1003.42	0.0805956
1004.61	0.0857363
1005.79	0.0936607
1006.98	0.101693
1008.16	0.111301
1009.35	0.123637
1010.53	0.139746
1011.72	0.158384
1012.9	0.178482
1014.09	0.200736
1015.27	0.226188
1016.46	0.252066
1017.64	0.28074
1018.83	0.309884
1020.01	0.340178
1021.2	0.374582
1022.38	0.408895
1023.57	0.442701
1024.75	0.477031
1025.94	0.51191
1027.12	0.546251
1028.31	0.578891
1029.49	0.609643
1030.68	0.639699
1031.86	0.668207
1033.05	0.694133
1034.23	0.718873
1035.42	0.740879
1036.6	0.758305
1037.79	0.775348
1038.97	0.789082
1040.16	0.796069
1041.34	0.800678
1042.53	0.803534
1043.71	0.804385
1044.9	0.801113
1046.08	0.794898
1047.27	0.786855
1048.45	0.777433
1049.64	0.764619
1050.82	0.749984
1052.01	0.734262
1053.19	0.71821
1054.38	0.700781
1055.56	0.682407
1056.75	0.661065
1057.93	0.642285
1059.12	0.625018
1060.3	0.606384
1061.49	0.58807
1062.67	0.571935
1063.86	0.557175
1065.04	0.542478
1066.23	0.526511
1067.41	0.514045
1068.6	0.502882
1069.78	0.49368
1070.97	0.483391
1072.15	0.475161
1073.34	0.470848
1074.52	0.467032
1075.71	0.464506
1076.89	0.460024
1078.08	0.458878
1079.26	0.45687
1080.45	0.454891
1081.63	0.455392
1082.82	0.45626
1084	0.458743
1085.19	0.459705
1086.37	0.459066
1087.56	0.458236
1088.74	0.459178
1089.93	0.461799
1091.11	0.461885
1092.3	0.463561
1093.48	0.463982
1094.67	0.465513
1095.85	0.465437
1097.04	0.463441
1098.22	0.460693
1099.41	0.455557
1100.59	0.450446
1101.78	0.444059
1102.96	0.434565
1104.15	0.426142
1105.33	0.415096
1106.52	0.400855
1107.7	0.384902
1108.89	0.366773
1110.07	0.346779
1111.26	0.32672
1112.44	0.305115
1113.63	0.283505
1114.81	0.263666
1116	0.242808
1117.18	0.220169
1118.37	0.195825
1119.55	0.17401
1120.74	0.15356
1121.92	0.132997
1123.11	0.114661
1124.29	0.0998895
1125.48	0.0859453
1126.66	0.0740539
1127.85	0.062885
1129.03	0.0535768
1130.22	0.0465259
1131.4	0.037203
1132.59	0.0300098
1133.77	0.0244978
1134.96	0.0187733
1136.14	0.0161131
1137.33	0.0123532
1138.51	0.00974512
1139.7	0.00881521
1140.88	0.00773113
1142.07	0.00704018
1143.25	0.00512009
1144.44	0.00167185
1145.62	0.000722071
1146.81	-0.000882641
1147.99	-0.00250308
1149.18	-0.00186218
1150.36	-0.00333594
1151.55	-0.00360787
1152.73	-0.00187177
1153.92	-0.000975123
1155.1	0.000405084
1156.29	0.00179446
1157.47	0.00329139
1158.66	0.00463772
1159.84	0.00479577
1161.03	0.00685065
1162.21	0.0106928
1163.4	0.0136959
1164.58	0.0166494
1165.77	0.0216857
1166.95	0.0281304
1168.14	0.0357678
1169.32	0.0414495
1170.51	0.0488395
1171.69	0.0563229
1172.88	0.0637463
1174.06	0.0736896
1175.25	0.0831589
1176.43	0.09289
1177.62	0.103146
1178.8	0.113631
1179.99	0.125664
1181.17	0.137253
1182.36	0.149491
1183.54	0.15993
1184.73	0.170302
1185.91	0.182056
1187.1	0.194423
1188.28	0.206185
1189.47	0.218916
1190.65	0.230836
1191.84	0.242017
1193.02	0.254885
1194.21	0.268589
1195.39	0.283282
1196.58	0.297284
1197.76	0.30985
1198.95	0.322643
1200.13	0.335676
1201.32	0.349131
1202.5	0.362649
1203.69	0.376272
1204.87	0.390402
1206.06	0.403788
1207.24	0.417396
1208.43	0.433775
1209.61	0.450024
1210.8	0.465362
1211.98	0.479518
1213.17	0.494041
1214.35	0.508207
1215.54	0.523195
1216.72	0.538412
1217.91	0.555643
1219.09	0.57317
1220.28	0.586796
1221.46	0.601497
1222.65	0.616142
1223.83	0.630322
1225.02	0.645743
1226.2	0.659189
1227.39	0.672222
1228.57	0.682901
1229.76	0.693755
1230.94	0.704012
1232.13	0.715915
1233.31	0.725159
1234.5	0.731476
1235.68	0.73544
1236.87	0.738713
1238.05	0.74551
1239.24	0.750098
1240.42	0.75312
1241.61	0.75577
1242.79	0.754382
1243.98	0.753103
1245.16	0.750093
1246.35	0.749985
1247.53	0.748534
1248.72	0.744475
1249.9	0.738878
1251.09	0.734022
1252.27	0.729516
1253.46	0.725058
1254.64	0.718526
1255.83	0.711228
1257.01	0.703993
1258.2	0.697197
1259.38	0.69032
1260.57	0.682219
1261.75	0.674549
1262.94	0.665657
1264.12	0.654522
1265.31	0.64458
1266.49	0.635105
1267.68	0.625984
1268.86	0.616491
1270.05	0.604778
1271.23	0.593169
1272.42	0.582024
1273.6	0.569312
1274.79	0.556856
1275.97	0.543072
1277.16	0.529841
1278.34	0.517474
1279.53	0.504747
1280.71	0.495726
1281.9	0.485645
1283.08	0.478418
1284.27	0.467641
1285.45	0.45779
1286.64	0.449708
1287.82	0.443935
1289.01	0.437337
1290.19	0.433423
1291.38	0.427465
1292.56	0.420783
1293.75	0.418819
1294.93	0.415345
1296.12	0.412399
1297.3	0.408797
1298.49	0.404738
1299.67	0.401465
1300.86	0.398015
1302.04	0.396373
1303.23	0.394032
1304.41	0.390366
1305.6	0.387307
1306.78	0.384216
1307.97	0.381005
1309.15	0.379103
1310.34	0.375973
1311.52	0.372423
1312.71	0.368621
1313.89	0.364188
1315.08	0.360691
1316.26	0.357739
1317.45	0.35295
1318.63	0.348461
1319.82	0.343262
1321	0.339784
1322.19	0.336897
1323.37	0.334071
1324.56	0.33131
1325.74	0.328401
1326.93	0.326746
1328.11	0.323053
1329.3	0.321623
1330.48	0.319437
1331.67	0.318803
1332.85	0.31791
1334.04	0.31518
1335.22	0.313346
1336.41	0.31183
1337.59	0.310543
1338.78	0.307953
1339.96	0.306049
1341.15	0.303961
1342.33	0.299839
1343.52	0.296322
1344.7	0.294594
1345.89	0.292909
1347.07	0.289793
1348.26	0.286667
1349.44	0.283857
1350.63	0.281507
1351.81	0.279648
1353	0.277531
1354.18	0.275232
1355.37	0.273919
1356.55	0.272242
1357.74	0.269781
1358.92	0.269611
1360.11	0.271683
1361.29	0.272508
1362.48	0.270226
1363.66	0.269639
1364.85	0.27109
1366.03	0.273092
1367.22	0.272695
1368.4	0.272897
1369.59	0.272096
1370.77	0.27159
1371.96	0.271838
1373.14	0.272081
1374.33	0.272366
1375.51	0.272792
1376.7	0.272324
1377.88	0.271626
1379.07	0.272778
1380.25	0.274773
1381.44	0.276365
1382.62	0.27614
1383.81	0.274939
1384.99	0.275084
1386.18	0.277315
1387.36	0.279531
1388.55	0.279936
1389.73	0.278747
1390.92	0.280553
1392.1	0.279681
1393.29	0.280214
1394.47	0.281139
1395.66	0.28062
1396.84	0.281805
1398.03	0.28133
1399.21	0.281165
1400.4	0.282879
1401.58	0.284141
1402.77	0.284228
1403.95	0.284726
1405.14	0.286884
1406.32	0.289779
1407.51	0.291148
1408.69	0.291969
1409.88	0.293889
1411.06	0.295026
1412.25	0.295848
1413.43	0.295679
1414.62	0.296213
1415.8	0.298419
1416.99	0.299359
1418.17	0.301498
1419.36	0.303516
1420.54	0.305945
1421.73	0.308399
1422.91	0.311993
1424.1	0.315715
1425.28	0.321299
1426.47	0.325998
1427.65	0.332881
1428.84	0.342218
1430.02	0.353358
1431.21	0.365307
1432.39	0.378644
1433.58	0.394535
1434.76	0.412115
1435.95	0.43124
1437.13	0.451676
1438.32	0.473263
1439.5	0.497029
1440.69	0.522643
1441.87	0.549089
1443.06	0.577939
1444.24	0.605701
1445.43	0.632069
1446.61	0.656484
1447.8	0.680078
1448.98	0.70378
1450.17	0.725017
1451.35	0.742529
1452.54	0.756923
1453.72	0.769472
1454.91	0.778659
1456.09	0.782393
1457.28	0.781473
1458.46	0.776168
1459.65	0.766216
1460.83	0.753446
1462.02	0.737432
1463.2	0.719709
1464.39	0.700232
1465.57	0.676278
1466.76	0.649866
1467.94	0.622581
1469.13	0.594725
1470.31	0.56469
1471.5	0.535966
1472.68	0.508269
1473.87	0.481159
1475.05	0.455138
1476.24	0.430722
1477.42	0.408985
1478.61	0.389432
1479.79	0.371813
1480.98	0.355277
1482.16	0.340863
1483.35	0.326884
1484.53	0.314604
1485.72	0.304389
1486.9	0.297442
1488.09	0.290097
1489.27	0.284807
1490.46	0.280715
1491.64	0.278814
1492.83	0.277908
1494.01	0.275603
1495.2	0.273463
1496.38	0.271246
1497.57	0.27032
1498.75	0.270028
1499.94	0.270782
1501.12	0.272681
1502.31	0.274951
1503.49	0.277352
1504.68	0.280387
1505.86	0.283092
1507.05	0.285665
1508.23	0.288359
1509.42	0.288668
1510.6	0.291061
1511.79	0.29275
1512.97	0.294491
1514.16	0.29647
1515.34	0.295536
1516.53	0.296131
1517.71	0.295956
1518.9	0.294452
1520.08	0.292761
1521.27	0.289677
1522.45	0.285507
1523.64	0.282435
1524.82	0.27973
1526.01	0.277608
1527.19	0.27441
1528.38	0.270708
1529.56	0.268772
1530.75	0.263823
1531.93	0.263019
1533.12	0.259598
1534.3	0.254949
1535.49	0.251178
1536.67	0.247991
1537.86	0.244918
1539.04	0.242654
1540.23	0.238822
1541.41	0.234553
1542.6	0.231622
1543.78	0.229356
1544.97	0.226906
1546.15	0.223674
1547.34	0.220778
1548.52	0.216197
1549.71	0.212537
1550.89	0.210071
1552.08	0.207797
1553.26	0.205394
1554.45	0.202125
1555.63	0.199311
1556.82	0.196438
1558	0.193251
1559.19	0.189244
1560.37	0.184942
1561.56	0.18084
1562.74	0.17704
1563.93	0.174146
1565.11	0.171026
1566.3	0.168065
1567.48	0.165778
1568.67	0.162151
1569.85	0.158309
1571.04	0.154855
1572.22	0.150602
1573.41	0.146782
1574.59	0.143913
1575.78	0.141297
1576.96	0.138213
1578.15	0.135197
1579.33	0.131867
1580.52	0.128611
1581.7	0.125255
1582.89	0.122398
1584.07	0.118129
1585.26	0.115092
1586.44	0.112129
1587.63	0.109626
1588.81	0.107589
1590	0.105581
1591.18	0.102732
1592.37	0.0992669
1593.55	0.0961296
1594.74	0.0923019
1595.92	0.0880819
1597.11	0.0842447
1598.29	0.0804504
1599.48	0.0771484
1600.66	0.0738019
1601.85	0.070514
1603.03	0.0663395
1604.22	0.0619284
1605.4	0.0585052
1606.59	0.055295
1607.77	0.0514798
1608.96	0.0476721
1610.14	0.04441
1611.33	0.0414466
1612.51	0.0392909
1613.7	0.0354469
1614.88	0.0327915
1616.07	0.0298062
1617.25	0.0274458
1618.44	0.024575
1619.62	0.0217692
1620.81	0.0193657
1621.99	0.0151951
1623.18	0.0101446
1624.36	0.0064752
1625.55	0.00385212
1626.73	0.00177046
1627.92	-0.0011094
1629.1	-0.00273322
1630.29	-0.0036952
1631.47	-0.0031526
1632.66	-0.00428309
1633.84	-0.00389928
1635.03	-0.0026014
1636.21	-0.00152687
1637.4	0.000870715
1638.58	0.00321361
1639.77	0.00683514
1640.95	0.00979322
1642.14	0.0128568
1643.32	0.0156001
1644.51	0.0182553
1645.69	0.0208512
1646.88	0.0221995
1648.06	0.0237713
1649.25	0.0274996
1650.43	0.0296343
1651.62	0.03259
1652.8	0.0353426
1653.99	0.0369745
1655.17	0.0407876
1656.36	0.0434611
1657.54	0.0453238
1658.73	0.0471283
1659.91	0.049411
1661.1	0.0523304
1662.28	0.0553319
1663.47	0.0589093
1664.65	0.0614323
1665.84	0.0623698
1667.02	0.064052
1668.21	0.0658056
1669.39	0.0661121
1670.58	0.0675859
1671.76	0.0689278
1672.95	0.0699858
1674.13	0.0716916
1675.32	0.0726022
1676.5	0.0738341
1677.69	0.0752682
1678.87	0.0764879
1680.06	0.076633
1681.24	0.0765034
1682.43	0.0781023
1683.61	0.0793398
1684.8	0.0796857
1685.98	0.0813254
1687.17	0.0827094
1688.35	0.0829131
1689.54	0.0840279
1690.72	0.0850859
1691.91	0.0868313
1693.09	0.0882602
1694.28	0.0889942
1695.46	0.0900085
1696.65	0.0913509
1697.83	0.0933699
1699.02	0.0943004
1700.2	0.0943973
1701.39	0.0944707
1702.57	0.0950907
1703.76	0.0951228
1704.94	0.0959408
1706.13	0.0966083
1707.31	0.0966155
1708.5	0.0965018
1709.68	0.0963352
1710.87	0.0957306
1712.05	0.094839
1713.24	0.0949446
1714.42	0.0950864
1715.61	0.0939518
1716.79	0.0940487
1717.98	0.0941966
1719.16	0.094576
1720.35	0.0952264
1721.53	0.0953848
1722.72	0.0952538
1723.9	0.0957215
1725.09	0.0955513
1726.27	0.0954393
1727.46	0.0954102
1728.64	0.0954513
1729.83	0.0950217
1731.01	0.0941591
1732.2	0.0948652
1733.38	0.0961475
1734.57	0.0964002
1735.75	0.0957568
1736.94	0.0962242
1738.12	0.0958835
1739.31	0.095359
1740.49	0.0940401
1741.68	0.093968
1742.86	0.0933304
1744.05	0.0934545
1745.23	0.0926964
1746.42	0.0920429
1747.6	0.0915072
1748.79	0.0892815
1749.97	0.08662
1751.16	0.0853492
1752.34	0.0840766
1753.53	0.082026
1754.71	0.0804577
1755.9	0.0789149
1757.08	0.0774881
1758.27	0.0751792
1759.45	0.0732659
1760.64	0.0711851
1761.82	0.0698264
1763.01	0.0679224
1764.19	0.0661646
1765.38	0.0650614
1766.56	0.0642946
1767.75	0.0624333
1768.93	0.0613191
1770.12	0.0586449
1771.3	0.0565243
1772.49	0.0549306
1773.67	0.0531476
1774.86	0.0515659
1776.04	0.0489023
1777.23	0.0464254
1778.41	0.0429256
1779.6	0.041552
1780.78	0.0393068
1781.97	0.0361208
1783.15	0.0315543
1784.34	0.0282577
1785.52	0.0248371
1786.71	0.0218132
1787.89	0.0185667
1789.08	0.0154917
1790.26	0.0123541
1791.45	0.0102173
1792.63	0.00784314
1793.82	0.00552095
1795	0.00297407
