405	0.22966
406.185	0.237828
407.37	0.243637
408.555	0.246943
409.74	0.248139
410.925	0.247398
412.11	0.244689
413.295	0.240481
414.48	0.235764
415.665	0.230691
416.85	0.223387
418.035	0.213713
419.22	0.202378
420.405	0.191307
421.59	0.179345
422.775	0.165778
423.96	0.15116
425.145	0.136093
426.33	0.121264
427.515	0.10741
428.7	0.0926917
429.885	0.0793638
431.07	0.0658189
432.255	0.0530136
433.44	0.0432169
434.625	0.0335374
435.81	0.024469
436.995	0.016126
438.18	0.00871334
439.365	0.00282473
440.55	-0.0033362
441.735	-0.00842284
442.92	-0.00939876
444.105	-0.0105657
445.29	-0.0101524
446.475	-0.00928333
447.66	-0.00799795
448.845	-0.00468629
450.03	0.000735134
451.215	0.00762253
452.4	0.0163777
453.585	0.026987
454.77	0.0405425
455.955	0.0543414
457.14	0.0712648
458.325	0.0883514
459.51	0.107967
460.695	0.129691
461.88	0.151737
463.065	0.174612
464.25	0.199265
465.435	0.225159
466.62	0.252899
467.805	0.280458
468.99	0.304038
470.175	0.328612
471.36	0.352307
472.545	0.373108
473.73	0.392394
474.915	0.410957
476.1	0.426865
477.285	0.439009
478.47	0.448275
479.655	0.454171
480.84	0.457801
482.025	0.456117
483.21	0.452118
484.395	0.444033
485.58	0.432255
486.765	0.41817
487.95	0.402928
489.135	0.385419
490.32	0.364541
491.505	0.341174
492.69	0.317154
493.875	0.293643
495.06	0.269703
496.245	0.245693
497.43	0.222218
498.615	0.198811
499.8	0.175171
500.985	0.153405
502.17	0.133263
503.355	0.11474
504.54	0.0974828
505.725	0.081152
506.91	0.067665
508.095	0.0554247
509.28	0.0453097
510.465	0.0383308
511.65	0.0320189
512.835	0.0252029
514.02	0.0191642
515.205	0.0138308
516.39	0.0104188
517.575	0.00849893
518.76	0.00727502
519.945	0.00722655
521.13	0.00752808
522.315	0.00763082
523.5	0.00805757
524.685	0.0114743
525.87	0.0131983
527.055	0.0165805
528.24	0.0195948
529.424	0.0227635
530.609	0.0272475
531.794	0.0316817
532.98	0.0350451
534.165	0.0384452
535.35	0.0416577
536.535	0.0429894
537.72	0.045413
538.905	0.0475824
540.09	0.0496005
541.275	0.0511431
542.46	0.0530486
543.645	0.0536646
544.83	0.0537749
546.015	0.0532922
547.199	0.0521631
548.384	0.0507431
549.569	0.0485439
550.754	0.0458696
551.939	0.0437992
553.124	0.041084
554.309	0.0392766
555.494	0.0377795
556.679	0.0365933
557.864	0.0350047
559.049	0.0328604
560.234	0.0305312
561.419	0.0278649
562.604	0.0248969
563.789	0.0223073
564.974	0.0198497
566.159	0.0162267
567.344	0.0143139
568.529	0.0132258
569.714	0.010238
570.899	0.00787567
572.084	0.00707744
573.269	0.00649944
574.454	0.00510494
575.639	0.00280578
576.824	0.000118438
578.009	-0.00211598
579.194	-0.00370967
580.379	-0.00471517
581.564	-0.00403925
582.749	-0.00367996
583.934	-0.00363195
585.119	-0.00365041
586.304	-0.00444182
587.489	-0.00495062
588.674	-0.00514649
589.859	-0.0051953
591.044	-0.00533531
592.229	-0.005457
593.414	-0.00517354
594.599	-0.00401057
595.784	-0.00198725
596.969	-0.000353016
598.154	-0.000170991
599.339	0.00159213
600.524	0.000752765
601.709	0.000639666
602.894	0.00126298
604.079	0.00212875
605.264	0.00398111
606.449	0.00454928
607.634	0.00552944
608.819	0.00735828
610.004	0.00885277
611.189	0.00983245
612.374	0.0107358
613.559	0.0116211
614.744	0.0131404
615.929	0.0150183
617.114	0.0179882
618.299	0.0201529
619.484	0.0226461
620.669	0.0256282
621.854	0.0261391
623.039	0.0278401
624.224	0.030361
625.409	0.0335342
626.594	0.0372006
627.779	0.0406316
628.964	0.0437268
630.149	0.0469394
631.334	0.0508841
632.519	0.0553996
633.704	0.058235
634.889	0.0610376
636.074	0.063623
637.259	0.0683266
638.444	0.072579
639.629	0.0768412
640.814	0.0842049
641.999	0.091182
643.184	0.0967273
644.369	0.103055
645.554	0.110122
646.739	0.11695
647.924	0.124599
649.109	0.132319
650.294	0.140378
651.479	0.149113
652.664	0.158736
653.849	0.168625
655.034	0.17773
656.219	0.185813
657.404	0.194367
658.589	0.202667
659.774	0.207847
660.959	0.213014
662.144	0.218529
663.329	0.222312
664.514	0.224577
665.699	0.225959
666.884	0.227095
668.069	0.226468
669.254	0.223534
670.439	0.219296
671.624	0.214346
672.809	0.207181
673.994	0.200786
675.179	0.193358
676.364	0.184633
677.549	0.175848
678.734	0.167354
679.919	0.159512
681.104	0.151843
682.289	0.143922
683.474	0.136186
684.659	0.128714
685.844	0.121245
687.029	0.114126
688.214	0.108089
689.399	0.102169
690.584	0.0975951
691.769	0.0940215
692.954	0.0921489
694.139	0.089123
695.324	0.0867782
696.509	0.085052
697.694	0.0849141
698.879	0.0839956
700.064	0.0834758
701.249	0.0836967
702.434	0.0838474
703.619	0.0837782
704.804	0.0826808
705.989	0.0832636
707.174	0.0841302
708.359	0.0847068
709.544	0.0854437
710.729	0.0862546
711.914	0.0862116
713.099	0.0858247
714.284	0.0870434
715.469	0.0874689
716.654	0.0880524
717.839	0.0886602
719.024	0.0882806
720.209	0.0878298
721.394	0.0873242
722.579	0.0875836
723.764	0.0890742
724.949	0.0899192
726.134	0.0905131
727.319	0.0912388
728.504	0.0905114
729.689	0.0904145
730.874	0.0913244
732.059	0.0925568
733.244	0.0931741
734.429	0.0930348
735.614	0.0932415
736.799	0.0927177
737.984	0.0926036
739.169	0.0924022
740.354	0.0928447
741.539	0.0933813
742.724	0.0936627
743.909	0.0942283
745.094	0.0951953
746.279	0.0967905
747.464	0.0990714
748.649	0.100519
749.834	0.101547
751.019	0.103597
752.204	0.103419
753.389	0.105173
754.574	0.107002
755.759	0.108746
756.944	0.111404
758.129	0.114882
759.314	0.118491
760.499	0.120268
761.684	0.122488
762.869	0.124439
764.054	0.126831
765.239	0.12862
766.424	0.129567
767.609	0.13089
768.794	0.132333
769.979	0.134237
771.164	0.137427
772.349	0.139472
773.534	0.140813
774.719	0.143057
775.904	0.143623
777.089	0.144928
778.274	0.14603
779.459	0.148935
780.644	0.151979
781.829	0.155765
783.014	0.161041
784.199	0.167859
785.384	0.175997
786.569	0.185339
787.754	0.196433
788.939	0.207885
790.124	0.219848
791.309	0.233649
792.494	0.249187
793.679	0.267203
794.864	0.287832
796.049	0.308706
797.234	0.330652
798.419	0.352433
799.604	0.374911
800.789	0.397512
801.974	0.416983
803.159	0.437073
804.344	0.455903
805.529	0.472306
806.714	0.48805
807.899	0.503067
809.084	0.516432
810.269	0.528065
811.454	0.537252
812.638	0.544075
813.823	0.550658
815.008	0.557541
816.193	0.5662
817.378	0.576501
818.563	0.587834
819.748	0.601137
820.934	0.61631
822.119	0.633413
823.304	0.653467
824.489	0.674814
825.674	0.697379
826.859	0.722235
828.044	0.75067
829.229	0.779923
830.413	0.809797
831.598	0.839474
832.783	0.865018
833.968	0.889607
835.153	0.909725
836.338	0.926064
837.523	0.937523
838.708	0.945095
839.893	0.948225
841.078	0.946054
842.263	0.940645
843.448	0.930751
844.633	0.9169
845.818	0.898698
847.003	0.875395
848.188	0.848716
849.373	0.819543
850.558	0.788249
851.743	0.755719
852.928	0.721621
854.113	0.687083
855.298	0.650233
856.483	0.613437
857.668	0.575848
858.853	0.538999
860.038	0.503298
861.223	0.46732
862.408	0.433139
863.593	0.399985
864.778	0.36704
865.963	0.337162
867.148	0.310874
868.333	0.286272
869.518	0.262788
870.703	0.241356
871.888	0.22151
873.073	0.20514
874.258	0.193133
875.443	0.183824
876.628	0.176395
877.813	0.170515
878.998	0.167281
880.183	0.166594
881.368	0.168032
882.553	0.172186
883.738	0.178016
884.923	0.184284
886.108	0.19141
887.293	0.200899
888.478	0.211819
889.663	0.223682
890.848	0.234769
892.033	0.246674
893.218	0.256744
894.403	0.269664
895.588	0.282241
896.773	0.296042
897.958	0.304321
899.143	0.314301
900.328	0.322204
901.513	0.330257
902.698	0.337295
903.883	0.34265
905.068	0.34501
906.253	0.347231
907.438	0.34707
908.623	0.346191
909.808	0.342402
910.993	0.337088
912.178	0.329705
913.363	0.320286
914.548	0.308286
915.733	0.295007
916.918	0.281472
918.103	0.266343
919.288	0.24906
920.473	0.230106
921.658	0.210196
922.843	0.190281
924.028	0.170114
925.213	0.149609
926.398	0.130437
927.583	0.112766
928.768	0.0970771
929.953	0.0815318
931.138	0.0663275
932.323	0.0527955
933.508	0.0409548
934.693	0.0325447
935.878	0.0240852
937.063	0.0178059
938.248	0.0131657
939.433	0.0116331
940.618	0.011048
941.803	0.0110401
942.988	0.0115559
944.173	0.0134025
945.358	0.015135
946.543	0.0179932
947.728	0.0213178
948.913	0.0264263
950.098	0.0317426
951.283	0.0369156
952.468	0.0424802
953.653	0.0466951
954.838	0.051032
956.023	0.055172
957.208	0.0578822
958.393	0.0598883
959.578	0.0621561
960.763	0.06452
961.948	0.0657153
963.133	0.0650752
964.318	0.0631019
965.503	0.0606697
966.688	0.0575337
967.873	0.0533718
969.058	0.0485624
970.243	0.0430823
971.428	0.0374484
972.613	0.031861
973.798	0.0263201
974.983	0.0209912
976.168	0.0160049
977.353	0.0106486
978.538	0.00530227
979.723	0.000784623
980.908	-0.00195609
982.093	-0.00374094
983.278	-0.00599508
984.463	-0.00724083
985.648	-0.00811114
986.833	-0.00831439
988.018	-0.00636965
989.203	-0.00484216
990.388	-0.00331954
991.573	-0.00108481
992.758	0.00213933
993.943	0.00675055
995.128	0.011965
996.313	0.0179781
997.498	0.0244644
998.683	0.029777
999.868	0.036613
1001.05	0.0485624
1002.24	0.061061
1003.42	0.0727878
1004.61	0.0874996
1005.79	0.10312
1006.98	0.119496
1008.16	0.138766
1009.35	0.15811
1010.53	0.178496
1011.72	0.20148
1012.9	0.225315
1014.09	0.250804
1015.27	0.27836
1016.46	0.307439
1017.64	0.336979
1018.83	0.364971
1020.01	0.392115
1021.2	0.42134
1022.38	0.451062
1023.57	0.480224
1024.75	0.508397
1025.94	0.535928
1027.12	0.564153
1028.31	0.591521
1029.49	0.614751
1030.68	0.635809
1031.86	0.655946
1033.05	0.674406
1034.23	0.689332
1035.42	0.702261
1036.6	0.714651
1037.79	0.724542
1038.97	0.731421
1040.16	0.735232
1041.34	0.73706
1042.53	0.737592
1043.71	0.736714
1044.9	0.733017
1046.08	0.727273
1047.27	0.720659
1048.45	0.712901
1049.64	0.704038
1050.82	0.69398
1052.01	0.683872
1053.19	0.673912
1054.38	0.662051
1055.56	0.649929
1056.75	0.637797
1057.93	0.62574
1059.12	0.614327
1060.3	0.603565
1061.49	0.591619
1062.67	0.57963
1063.86	0.569329
1065.04	0.55984
1066.23	0.553125
1067.41	0.545335
1068.6	0.537484
1069.78	0.530425
1070.97	0.524718
1072.15	0.519202
1073.34	0.514119
1074.52	0.510392
1075.71	0.507844
1076.89	0.504361
1078.08	0.500773
1079.26	0.499337
1080.45	0.499353
1081.63	0.499086
1082.82	0.499026
1084	0.496983
1085.19	0.496409
1086.37	0.497398
1087.56	0.49795
1088.74	0.498484
1089.93	0.498267
1091.11	0.498347
1092.3	0.496635
1093.48	0.494906
1094.67	0.493039
1095.85	0.490407
1097.04	0.484488
1098.22	0.477523
1099.41	0.468338
1100.59	0.458164
1101.78	0.447421
1102.96	0.435742
1104.15	0.419488
1105.33	0.402252
1106.52	0.385024
1107.7	0.365376
1108.89	0.343218
1110.07	0.322775
1111.26	0.30034
1112.44	0.278254
1113.63	0.255356
1114.81	0.234536
1116	0.213637
1117.18	0.193601
1118.37	0.173288
1119.55	0.154308
1120.74	0.13682
1121.92	0.121615
1123.11	0.106997
1124.29	0.0927066
1125.48	0.080293
1126.66	0.071866
1127.85	0.0627022
1129.03	0.0545061
1130.22	0.0472313
1131.4	0.039982
1132.59	0.0342088
1133.77	0.0295414
1134.96	0.0257146
1136.14	0.0216356
1137.33	0.0182441
1138.51	0.0134526
1139.7	0.0106102
1140.88	0.00625441
1142.07	0.00429057
1143.25	0.0025235
1144.44	0.000116155
1145.62	-0.00116207
1146.81	-0.00250138
1147.99	-0.00373568
1149.18	-0.0038867
1150.36	-0.00508827
1151.55	-0.00656665
1152.73	-0.00705783
1153.92	-0.00602191
1155.1	-0.00540429
1156.29	-0.00362335
1157.47	-0.00190558
1158.66	0.00147674
1159.84	0.00407547
1161.03	0.00872406
1162.21	0.0128149
1163.4	0.0163773
1164.58	0.0213675
1165.77	0.0263909
1166.95	0.0324299
1168.14	0.0395854
1169.32	0.0478637
1170.51	0.0557435
1171.69	0.0643178
1172.88	0.0741592
1174.06	0.085141
1175.25	0.0953343
1176.43	0.106258
1177.62	0.11713
1178.8	0.128311
1179.99	0.139761
1181.17	0.152102
1182.36	0.165071
1183.54	0.178411
1184.73	0.192588
1185.91	0.206924
1187.1	0.221124
1188.28	0.236346
1189.47	0.250255
1190.65	0.263759
1191.84	0.278351
1193.02	0.294247
1194.21	0.31006
1195.39	0.325338
1196.58	0.340424
1197.76	0.356826
1198.95	0.373142
1200.13	0.389529
1201.32	0.40691
1202.5	0.42369
1203.69	0.440089
1204.87	0.455765
1206.06	0.472949
1207.24	0.491637
1208.43	0.510156
1209.61	0.528109
1210.8	0.54541
1211.98	0.563247
1213.17	0.582558
1214.35	0.601808
1215.54	0.619505
1216.72	0.637473
1217.91	0.655255
1219.09	0.672539
1220.28	0.688376
1221.46	0.705101
1222.65	0.7213
1223.83	0.735778
1225.02	0.75063
1226.2	0.763731
1227.39	0.776506
1228.57	0.787941
1229.76	0.798737
1230.94	0.807535
1232.13	0.8166
1233.31	0.824173
1234.5	0.829475
1235.68	0.834509
1236.87	0.837483
1238.05	0.842712
1239.24	0.845552
1240.42	0.846773
1241.61	0.847819
1242.79	0.846542
1243.98	0.844265
1245.16	0.84179
1246.35	0.840291
1247.53	0.836161
1248.72	0.829858
1249.9	0.82206
1251.09	0.816224
1252.27	0.810201
1253.46	0.803535
1254.64	0.795851
1255.83	0.785516
1257.01	0.775433
1258.2	0.764289
1259.38	0.752606
1260.57	0.741144
1261.75	0.729584
1262.94	0.715575
1264.12	0.70009
1265.31	0.685919
1266.49	0.672534
1267.68	0.658181
1268.86	0.643256
1270.05	0.626608
1271.23	0.609737
1272.42	0.594615
1273.6	0.578709
1274.79	0.563721
1275.97	0.549075
1277.16	0.535029
1278.34	0.521105
1279.53	0.507438
1280.71	0.497292
1281.9	0.486153
1283.08	0.475556
1284.27	0.465854
1285.45	0.456644
1286.64	0.447456
1287.82	0.440359
1289.01	0.429238
1290.19	0.421269
1291.38	0.415099
1292.56	0.408517
1293.75	0.402702
1294.93	0.395974
1296.12	0.389329
1297.3	0.382338
1298.49	0.375576
1299.67	0.369436
1300.86	0.362322
1302.04	0.354946
1303.23	0.347724
1304.41	0.339354
1305.6	0.333111
1306.78	0.328049
1307.97	0.321287
1309.15	0.314458
1310.34	0.306522
1311.52	0.298879
1312.71	0.292657
1313.89	0.286399
1315.08	0.279795
1316.26	0.272269
1317.45	0.264809
1318.63	0.258461
1319.82	0.253423
1321	0.24941
1322.19	0.245357
1323.37	0.24003
1324.56	0.235719
1325.74	0.231747
1326.93	0.227027
1328.11	0.224226
1329.3	0.220641
1330.48	0.216751
1331.67	0.214465
1332.85	0.210867
1334.04	0.208753
1335.22	0.205414
1336.41	0.202123
1337.59	0.198203
1338.78	0.196044
1339.96	0.193566
1341.15	0.190621
1342.33	0.187328
1343.52	0.183956
1344.7	0.180618
1345.89	0.177401
1347.07	0.173832
1348.26	0.170637
1349.44	0.16761
1350.63	0.164971
1351.81	0.163057
1353	0.16127
1354.18	0.159399
1355.37	0.156867
1356.55	0.153711
1357.74	0.151675
1358.92	0.149591
1360.11	0.146861
1361.29	0.145072
1362.48	0.143823
1363.66	0.142374
1364.85	0.14006
1366.03	0.138869
1367.22	0.137828
1368.4	0.135399
1369.59	0.133784
1370.77	0.131698
1371.96	0.130593
1373.14	0.129433
1374.33	0.129318
1375.51	0.128328
1376.7	0.127228
1377.88	0.125548
1379.07	0.124156
1380.25	0.122786
1381.44	0.122802
1382.62	0.121147
1383.81	0.118983
1384.99	0.117725
1386.18	0.117415
1387.36	0.117228
1388.55	0.116495
1389.73	0.114981
1390.92	0.113447
1392.1	0.111084
1393.29	0.109575
1394.47	0.111075
1395.66	0.11087
1396.84	0.11036
1398.03	0.108726
1399.21	0.10817
1400.4	0.109447
1401.58	0.109585
1402.77	0.110358
1403.95	0.109912
1405.14	0.108318
1406.32	0.108011
1407.51	0.109035
1408.69	0.109418
1409.88	0.109182
1411.06	0.109
1412.25	0.109794
1413.43	0.111518
1414.62	0.113344
1415.8	0.115926
1416.99	0.118048
1418.17	0.119793
1419.36	0.122788
1420.54	0.125322
1421.73	0.131368
1422.91	0.137491
1424.1	0.143174
1425.28	0.148649
1426.47	0.157277
1427.65	0.167847
1428.84	0.179047
1430.02	0.189609
1431.21	0.203371
1432.39	0.219608
1433.58	0.236286
1434.76	0.255011
1435.95	0.275458
1437.13	0.296747
1438.32	0.318285
1439.5	0.34123
1440.69	0.36489
1441.87	0.391207
1443.06	0.416009
1444.24	0.439066
1445.43	0.459993
1446.61	0.481531
1447.8	0.499466
1448.98	0.513141
1450.17	0.525318
1451.35	0.534954
1452.54	0.54113
1453.72	0.543599
1454.91	0.543363
1456.09	0.538748
1457.28	0.530116
1458.46	0.518184
1459.65	0.502907
1460.83	0.485125
1462.02	0.464586
1463.2	0.442071
1464.39	0.41874
1465.57	0.394069
1466.76	0.368039
1467.94	0.340167
1469.13	0.31378
1470.31	0.287217
1471.5	0.262339
1472.68	0.239085
1473.87	0.215919
1475.05	0.193555
1476.24	0.1738
1477.42	0.156598
1478.61	0.140228
1479.79	0.126113
1480.98	0.114049
1482.16	0.103158
1483.35	0.0928724
1484.53	0.086271
1485.72	0.0805891
1486.9	0.0760858
1488.09	0.0716021
1489.27	0.066472
1490.46	0.0646538
1491.64	0.0630981
1492.83	0.0614477
1494.01	0.0595836
1495.2	0.0598123
1496.38	0.0591644
1497.57	0.0580763
1498.75	0.058321
1499.94	0.0600063
1501.12	0.061139
1502.31	0.0614138
1503.49	0.0613423
1504.68	0.0619261
1505.86	0.064054
1507.05	0.0652843
1508.23	0.0662776
1509.42	0.0684156
1510.6	0.0702204
1511.79	0.0715362
1512.97	0.0728909
1514.16	0.0747605
1515.34	0.0751387
1516.53	0.0760082
1517.71	0.0765537
1518.9	0.0753088
1520.08	0.0752866
1521.27	0.0752597
1522.45	0.0747539
1523.64	0.0750279
1524.82	0.0744056
1526.01	0.072162
1527.19	0.0712779
1528.38	0.0700907
1529.56	0.0696228
1530.75	0.0685039
1531.93	0.0685122
1533.12	0.0672614
1534.3	0.065983
1535.49	0.0662639
1536.67	0.0657912
1537.86	0.0653883
1539.04	0.0638986
1540.23	0.0619155
1541.41	0.0618521
1542.6	0.0613688
1543.78	0.0603063
1544.97	0.0587852
1546.15	0.0577735
1547.34	0.0567178
1548.52	0.0546797
1549.71	0.0531332
1550.89	0.0506036
1552.08	0.0491117
1553.26	0.0483718
1554.45	0.0473734
1555.63	0.0468962
1556.82	0.0460593
1558	0.0440831
1559.19	0.0427713
1560.37	0.0412232
1561.56	0.0398978
1562.74	0.0380771
1563.93	0.0369234
1565.11	0.0359685
1566.3	0.0350144
1567.48	0.0353011
1568.67	0.0349107
1569.85	0.0338944
1571.04	0.031904
1572.22	0.0304586
1573.41	0.0295371
1574.59	0.0289174
1575.78	0.0284082
1576.96	0.028244
1578.15	0.0274419
1579.33	0.0269547
1580.52	0.0264305
1581.7	0.0255638
1582.89	0.0250527
1584.07	0.0243169
1585.26	0.0232081
1586.44	0.0225011
1587.63	0.0222122
1588.81	0.0215129
1590	0.0206867
1591.18	0.0191818
1592.37	0.0175513
1593.55	0.0166464
1594.74	0.0160178
1595.92	0.0147753
1597.11	0.0132698
1598.29	0.0126962
1599.48	0.0111952
1600.66	0.0102241
1601.85	0.00863567
1603.03	0.00797509
1604.22	0.00779403
1605.4	0.00730432
1606.59	0.00647705
1607.77	0.00638167
1608.96	0.0063695
1610.14	0.00557949
1611.33	0.00475371
1612.51	0.00480006
1613.7	0.00319733
1614.88	0.00269751
1616.07	0.00252001
1617.25	0.001435
1618.44	0.00102883
1619.62	0.000255414
1620.81	-0.000945
1621.99	-0.00239512
1623.18	-0.00350085
1624.36	-0.00428801
1625.55	-0.00524065
1626.73	-0.0055558
1627.92	-0.0055131
1629.1	-0.00582173
1630.29	-0.00456285
1631.47	-0.00515616
1632.66	-0.00475058
1633.84	-0.00380088
1635.03	-0.00408055
1636.21	-0.00331872
1637.4	-0.00143233
1638.58	0.000415084
1639.77	0.00179653
1640.95	0.00338351
1642.14	0.00538889
1643.32	0.0064871
1644.51	0.00778349
1645.69	0.00909389
1646.88	0.0109775
1648.06	0.012634
1649.25	0.0136709
1650.43	0.0149552
1651.62	0.017482
1652.8	0.0186106
1653.99	0.0193476
1655.17	0.0197216
1656.36	0.0202737
1657.54	0.0212131
1658.73	0.0217865
1659.91	0.0227883
1661.1	0.0234753
1662.28	0.0241867
1663.47	0.0249142
1664.65	0.0261698
1665.84	0.0283054
1667.02	0.0293246
1668.21	0.0306851
1669.39	0.0320466
1670.58	0.0333412
1671.76	0.0358074
1672.95	0.0378461
1674.13	0.0391231
1675.32	0.0404404
1676.5	0.0420861
1677.69	0.0437088
1678.87	0.0448848
1680.06	0.0461859
1681.24	0.0467796
1682.43	0.046608
1683.61	0.0481272
1684.8	0.0474145
1685.98	0.0479386
1687.17	0.0489484
1688.35	0.0495703
1689.54	0.0507141
1690.72	0.0516874
1691.91	0.0527115
1693.09	0.053163
1694.28	0.0534259
1695.46	0.0535469
1696.65	0.0537345
1697.83	0.054852
1699.02	0.0563587
1700.2	0.0558738
1701.39	0.0570663
1702.57	0.0573226
1703.76	0.0578455
1704.94	0.0579324
1706.13	0.0576831
1707.31	0.0578667
1708.5	0.0583324
1709.68	0.0587553
1710.87	0.0597052
1712.05	0.0599254
1713.24	0.0601818
1714.42	0.0599647
1715.61	0.0591869
1716.79	0.0593261
1717.98	0.059675
1719.16	0.0592289
1720.35	0.0585799
1721.53	0.0582764
1722.72	0.057968
1723.9	0.0569651
1725.09	0.0558738
1726.27	0.0550037
1727.46	0.0542473
1728.64	0.0549511
1729.83	0.0543143
1731.01	0.0533146
1732.2	0.052866
1733.38	0.0525481
1734.57	0.051668
1735.75	0.0510327
1736.94	0.050959
1738.12	0.0504948
1739.31	0.0487273
1740.49	0.0482313
1741.68	0.0478994
1742.86	0.0474245
1744.05	0.0467716
1745.23	0.0455578
1746.42	0.0449947
1747.6	0.0442965
1748.79	0.0428331
1749.97	0.0414859
1751.16	0.0405449
1752.34	0.0403045
1753.53	0.0386631
1754.71	0.0380708
1755.9	0.0389567
1757.08	0.0381081
1758.27	0.036838
1759.45	0.035411
1760.64	0.0336688
1761.82	0.0321784
1763.01	0.0309885
1764.19	0.0300618
1765.38	0.0298523
1766.56	0.0294455
1767.75	0.0287637
1768.93	0.027616
1770.12	0.0264801
1771.3	0.0249429
1772.49	0.0233031
1773.67	0.0215576
1774.86	0.0198265
1776.04	0.0188571
1777.23	0.0183603
1778.41	0.017559
1779.6	0.0159055
1780.78	0.014219
1781.97	0.0125627
1783.15	0.0100559
1784.34	0.00820393
1785.52	0.00662758
1786.71	0.0051269
1787.89	0.00372033
1789.08	0.00251075
1790.26	0.00179329
1791.45	0.000972142
1792.63	-0.000409623
1793.82	-0.00178334
1795	-0.00207483
