405	0.237248
406.185	0.243737
407.37	0.248812
408.555	0.252038
409.74	0.252503
410.925	0.250792
412.11	0.247227
413.295	0.242946
414.48	0.238807
415.665	0.232252
416.85	0.224756
418.035	0.215314
419.22	0.202897
420.405	0.190903
421.59	0.17773
422.775	0.16408
423.96	0.14956
425.145	0.134172
426.33	0.11866
427.515	0.103152
428.7	0.0891847
429.885	0.0774568
431.07	0.0649759
432.255	0.0532511
433.44	0.042339
434.625	0.0329208
435.81	0.0239797
436.995	0.0156782
438.18	0.00830232
439.365	0.00169057
440.55	-0.00281039
441.735	-0.00632642
442.92	-0.00946353
444.105	-0.0105657
445.29	-0.0104838
446.475	-0.00864559
447.66	-0.00512766
448.845	-0.000570342
450.03	0.00507515
451.215	0.0121864
452.4	0.0209401
453.585	0.0320777
454.77	0.0457338
455.955	0.0614576
457.14	0.0782447
458.325	0.0991326
459.51	0.120409
460.695	0.143226
461.88	0.167736
463.065	0.1931
464.25	0.219308
465.435	0.246523
466.62	0.27324
467.805	0.298758
468.99	0.325832
470.175	0.35137
471.36	0.375752
472.545	0.398426
473.73	0.418158
474.915	0.436347
476.1	0.452393
477.285	0.464675
478.47	0.473015
479.655	0.477107
480.84	0.478239
482.025	0.477752
483.21	0.471266
484.395	0.46169
485.58	0.44868
486.765	0.433665
487.95	0.415309
489.135	0.394527
490.32	0.372908
491.505	0.350295
492.69	0.326297
493.875	0.301398
495.06	0.276397
496.245	0.250444
497.43	0.225217
498.615	0.201193
499.8	0.178922
500.985	0.157933
502.17	0.138457
503.355	0.119504
504.54	0.101921
505.725	0.0872286
506.91	0.0730828
508.095	0.062116
509.28	0.05233
510.465	0.0432477
511.65	0.0360527
512.835	0.0300023
514.02	0.0237442
515.205	0.019592
516.39	0.0167714
517.575	0.0148392
518.76	0.0136157
519.945	0.0119842
521.13	0.0109661
522.315	0.0120136
523.5	0.0158299
524.685	0.0171555
525.87	0.0210276
527.055	0.0238723
528.24	0.0266585
529.424	0.0285129
530.61	0.0305449
531.795	0.0338515
532.98	0.0376796
534.165	0.0410976
535.35	0.0445453
536.535	0.0478608
537.72	0.0514654
538.905	0.0559653
540.09	0.0572529
541.275	0.0590384
542.46	0.059248
543.645	0.0595597
544.83	0.0593216
546.014	0.0585166
547.199	0.0573025
548.384	0.0561934
549.569	0.055732
550.754	0.0533283
551.939	0.0493466
553.124	0.0454549
554.309	0.0408397
555.494	0.0378056
556.679	0.0347066
557.864	0.0308906
559.049	0.0275275
560.234	0.0247607
561.419	0.0218496
562.604	0.0190156
563.789	0.0168432
564.974	0.0144695
566.159	0.0111643
567.344	0.00873314
568.529	0.00653325
569.714	0.00514729
570.899	0.00358376
572.084	0.00344783
573.269	0.00334175
574.454	0.0024627
575.639	8.62281e-005
576.824	-0.00217301
578.009	-0.00310953
579.194	-0.00343794
580.379	-0.00357449
581.564	-0.00371202
582.749	-0.00473246
583.934	-0.00503545
585.119	-0.00463091
586.304	-0.00379295
587.489	-0.00382259
588.674	-0.00369497
589.859	-0.00363202
591.044	-0.00401696
592.229	-0.00416775
593.414	-0.0035935
594.599	-0.00228866
595.784	-0.000825765
596.969	-0.000175714
598.154	0.000650396
599.339	0.000523395
600.524	0.00062411
601.709	0.00155911
602.894	0.00166002
604.079	0.00176982
605.264	0.00174918
606.449	0.00209416
607.634	0.00290136
608.819	0.00392571
610.004	0.00545003
611.189	0.00734773
612.374	0.0087192
613.559	0.00972407
614.744	0.0111486
615.929	0.0118874
617.114	0.0123256
618.299	0.0137455
619.484	0.0163061
620.669	0.0184166
621.854	0.0203261
623.039	0.0225267
624.224	0.0248001
625.409	0.0274613
626.594	0.0297686
627.779	0.0322092
628.964	0.0354957
630.149	0.0381896
631.334	0.0418112
632.519	0.0458031
633.704	0.0495388
634.889	0.0545702
636.074	0.0596174
637.259	0.0653554
638.444	0.0693723
639.629	0.0747944
640.814	0.0810136
641.999	0.0879771
643.184	0.0953857
644.369	0.103005
645.554	0.110916
646.739	0.118893
647.924	0.126806
649.109	0.13512
650.294	0.144168
651.479	0.152062
652.664	0.160493
653.849	0.170238
655.034	0.178322
656.219	0.186679
657.404	0.195489
658.589	0.202402
659.774	0.208145
660.959	0.212705
662.144	0.216866
663.329	0.220165
664.514	0.221691
665.699	0.222449
666.884	0.221596
668.069	0.219818
669.254	0.215475
670.439	0.210317
671.624	0.204515
672.809	0.196972
673.994	0.189558
675.179	0.180701
676.364	0.171416
677.549	0.162542
678.734	0.154512
679.919	0.146425
681.104	0.136724
682.289	0.12715
683.474	0.119607
684.659	0.112586
685.844	0.106366
687.029	0.100557
688.214	0.0950711
689.399	0.0904715
690.584	0.0855234
691.769	0.0819377
692.954	0.0786001
694.139	0.0758139
695.324	0.0738006
696.509	0.0724843
697.694	0.0701128
698.879	0.0680923
700.064	0.0675425
701.249	0.0672674
702.434	0.0666707
703.619	0.0657914
704.804	0.0644265
705.989	0.0639356
707.174	0.062942
708.359	0.0628575
709.544	0.063131
710.729	0.0625615
711.914	0.0626397
713.099	0.0617385
714.284	0.0623098
715.469	0.0614858
716.654	0.0614672
717.839	0.0616239
719.024	0.0621508
720.209	0.0627475
721.394	0.0628511
722.579	0.0633535
723.764	0.0642011
724.949	0.0645209
726.134	0.065519
727.319	0.0663312
728.504	0.0667672
729.689	0.067474
730.874	0.0682392
732.059	0.069199
733.244	0.069245
734.429	0.0692884
735.614	0.0702411
736.799	0.0708932
737.984	0.0708285
739.169	0.0710463
740.354	0.0714751
741.539	0.0717805
742.724	0.072041
743.909	0.0727199
745.094	0.0735741
746.279	0.0746582
747.464	0.076577
748.649	0.0779544
749.834	0.0792488
751.019	0.0808478
752.204	0.0820316
753.389	0.0842518
754.574	0.0856931
755.759	0.086845
756.944	0.0892529
758.129	0.0905072
759.314	0.0926687
760.499	0.0955199
761.684	0.0978505
762.869	0.0999256
764.054	0.102328
765.239	0.104839
766.424	0.107404
767.609	0.110029
768.794	0.112427
769.979	0.114684
771.164	0.11687
772.349	0.118879
773.534	0.121821
774.719	0.12486
775.904	0.127559
777.089	0.130933
778.274	0.132591
779.459	0.134858
780.644	0.138613
781.829	0.142811
783.014	0.148254
784.199	0.154304
785.384	0.161234
786.569	0.170125
787.754	0.180924
788.939	0.193542
790.124	0.20785
791.309	0.223576
792.494	0.24125
793.679	0.260658
794.864	0.280392
796.049	0.301338
797.234	0.324647
798.419	0.347656
799.604	0.370448
800.789	0.392154
801.974	0.413131
803.159	0.433567
804.344	0.451188
805.529	0.467669
806.714	0.482647
807.898	0.495301
809.083	0.508299
810.268	0.518196
811.454	0.526307
812.639	0.534356
813.824	0.54253
815.009	0.550422
816.194	0.559162
817.379	0.569353
818.564	0.581504
819.749	0.595542
820.934	0.611558
822.119	0.631162
823.304	0.653722
824.489	0.678068
825.673	0.703767
826.858	0.731807
828.043	0.759623
829.228	0.788531
830.413	0.817325
831.598	0.845011
832.783	0.870325
833.968	0.892586
835.153	0.912516
836.338	0.928903
837.523	0.93939
838.708	0.946684
839.893	0.948225
841.078	0.944864
842.263	0.937106
843.448	0.925025
844.633	0.908242
845.818	0.886695
847.003	0.862421
848.188	0.835335
849.373	0.804629
850.558	0.772249
851.743	0.739461
852.928	0.705355
854.113	0.667665
855.298	0.630492
856.483	0.593944
857.668	0.557055
858.853	0.519691
860.038	0.483344
861.223	0.447667
862.408	0.413646
863.593	0.380638
864.778	0.350571
865.963	0.321077
867.148	0.294989
868.333	0.269939
869.518	0.247194
870.703	0.226
871.888	0.208737
873.073	0.194052
874.258	0.182615
875.443	0.173024
876.628	0.166315
877.813	0.162606
878.998	0.160771
880.183	0.160894
881.368	0.163441
882.553	0.167989
883.738	0.174277
884.923	0.182133
886.108	0.19041
887.293	0.200327
888.478	0.211096
889.663	0.22186
890.848	0.233698
892.033	0.24659
893.218	0.258482
894.403	0.271326
895.588	0.283597
896.773	0.294857
897.958	0.306191
899.143	0.31515
900.328	0.324967
901.513	0.332255
902.698	0.338131
903.883	0.343751
905.068	0.347645
906.253	0.349897
907.438	0.350236
908.623	0.349331
909.808	0.344957
910.993	0.338387
912.178	0.329747
913.363	0.31921
914.548	0.306652
915.733	0.292372
916.918	0.277547
918.103	0.260328
919.288	0.241366
920.473	0.221992
921.658	0.200967
922.843	0.180696
924.028	0.161096
925.213	0.141229
926.398	0.121912
927.583	0.10239
928.768	0.086487
929.953	0.0713748
931.138	0.0575419
932.323	0.0454701
933.508	0.0350256
934.693	0.0248148
935.878	0.0163056
937.063	0.0123399
938.248	0.00763512
939.433	0.0071387
940.618	0.00688021
941.803	0.00610816
942.988	0.00761973
944.173	0.00833138
945.358	0.012332
946.543	0.0149642
947.728	0.0178845
948.913	0.0222794
950.098	0.0276987
951.283	0.0325744
952.468	0.0393391
953.653	0.0455643
954.838	0.0502155
956.023	0.054988
957.208	0.0587525
958.393	0.0613293
959.578	0.0634115
960.763	0.0648034
961.948	0.0661708
963.133	0.0662317
964.318	0.0642721
965.503	0.0621935
966.688	0.0596854
967.873	0.0556633
969.058	0.0508954
970.243	0.0450144
971.428	0.0382267
972.613	0.0320044
973.798	0.0256302
974.983	0.0195128
976.168	0.0135842
977.353	0.00855802
978.538	0.00434143
979.723	0.000427656
980.908	-0.00279988
982.093	-0.00541774
983.278	-0.00651798
984.463	-0.00753996
985.648	-0.00732803
986.833	-0.00811646
988.018	-0.0062266
989.203	-0.00406086
990.388	-0.000436996
991.573	0.0028666
992.758	0.0068904
993.943	0.0119799
995.128	0.018587
996.313	0.0242195
997.498	0.0314131
998.683	0.038417
999.868	0.0476132
1001.05	0.0585996
1002.24	0.071012
1003.42	0.0827734
1004.61	0.0980614
1005.79	0.114456
1006.98	0.13237
1008.16	0.150761
1009.35	0.171093
1010.53	0.193834
1011.72	0.217954
1012.9	0.242996
1014.09	0.270351
1015.27	0.298739
1016.46	0.328322
1017.64	0.358386
1018.83	0.387969
1020.01	0.417744
1021.2	0.448097
1022.38	0.478302
1023.57	0.506961
1024.75	0.535141
1025.94	0.562484
1027.12	0.58908
1028.31	0.614521
1029.49	0.637755
1030.68	0.658597
1031.86	0.6775
1033.05	0.694454
1034.23	0.709487
1035.42	0.722622
1036.6	0.733942
1037.79	0.742705
1038.97	0.748665
1040.16	0.752355
1041.34	0.753312
1042.53	0.752536
1043.71	0.750719
1044.9	0.747388
1046.08	0.741673
1047.27	0.733971
1048.45	0.725214
1049.64	0.71454
1050.82	0.703018
1052.01	0.690243
1053.19	0.677357
1054.38	0.664555
1055.56	0.651484
1056.75	0.63817
1057.93	0.625651
1059.12	0.613516
1060.3	0.602392
1061.49	0.591483
1062.67	0.5812
1063.86	0.571659
1065.04	0.563116
1066.23	0.554701
1067.41	0.547751
1068.6	0.541509
1069.78	0.537229
1070.97	0.53245
1072.15	0.528567
1073.34	0.524384
1074.52	0.521178
1075.71	0.517449
1076.89	0.514471
1078.08	0.512488
1079.26	0.50949
1080.45	0.507871
1081.63	0.505446
1082.82	0.504181
1084	0.503605
1085.19	0.504617
1086.37	0.504298
1087.56	0.503549
1088.74	0.503659
1089.93	0.502572
1091.11	0.501419
1092.3	0.500609
1093.48	0.500514
1094.67	0.498612
1095.85	0.493985
1097.04	0.489264
1098.22	0.482029
1099.41	0.473414
1100.59	0.46238
1101.78	0.449553
1102.96	0.434701
1104.15	0.419214
1105.33	0.402251
1106.52	0.382644
1107.7	0.361825
1108.89	0.339309
1110.07	0.316341
1111.26	0.293249
1112.44	0.269862
1113.63	0.248044
1114.81	0.22587
1116	0.204912
1117.18	0.185852
1118.37	0.166706
1119.55	0.147927
1120.74	0.131011
1121.92	0.115804
1123.11	0.10098
1124.29	0.08893
1125.48	0.0780948
1126.66	0.068978
1127.85	0.0608057
1129.03	0.0512089
1130.22	0.0441875
1131.4	0.0384499
1132.59	0.0328862
1133.77	0.0271555
1134.96	0.0215394
1136.14	0.0178367
1137.33	0.015612
1138.51	0.0124189
1139.7	0.00865018
1140.88	0.00531933
1142.07	0.0020011
1143.25	-5.56517e-005
1144.44	-0.00234346
1145.62	-0.00426238
1146.81	-0.00506843
1147.99	-0.00591769
1149.18	-0.0059864
1150.36	-0.00517951
1151.55	-0.00403201
1152.73	-0.00313263
1153.92	-0.00238971
1155.1	-0.00146956
1156.29	0.000146174
1157.47	0.00164194
1158.66	0.00487424
1159.84	0.00832235
1161.03	0.0116004
1162.21	0.0165153
1163.4	0.0216836
1164.58	0.0275811
1165.77	0.0337353
1166.95	0.0390245
1168.14	0.0449728
1169.32	0.0527227
1170.51	0.0612249
1171.69	0.0696632
1172.88	0.0788263
1174.06	0.0881769
1175.25	0.0989115
1176.43	0.110256
1177.62	0.121275
1178.8	0.13292
1179.99	0.144572
1181.17	0.156912
1182.36	0.169376
1183.54	0.181885
1184.73	0.195214
1185.91	0.20848
1187.1	0.221022
1188.28	0.234222
1189.47	0.248593
1190.65	0.263079
1191.84	0.278997
1193.02	0.294308
1194.21	0.308389
1195.39	0.322584
1196.58	0.336679
1197.76	0.351248
1198.95	0.365408
1200.13	0.380151
1201.32	0.395524
1202.5	0.410889
1203.69	0.426576
1204.87	0.441854
1206.06	0.457758
1207.24	0.47367
1208.43	0.48945
1209.61	0.503765
1210.8	0.519592
1211.98	0.536634
1213.17	0.554631
1214.35	0.572024
1215.54	0.58857
1216.72	0.604252
1217.91	0.619843
1219.09	0.636045
1220.28	0.651814
1221.46	0.667021
1222.65	0.683333
1223.83	0.697005
1225.02	0.709622
1226.2	0.721371
1227.39	0.734338
1228.57	0.744678
1229.76	0.754614
1230.94	0.762824
1232.13	0.772392
1233.31	0.779176
1234.5	0.785066
1235.68	0.79188
1236.87	0.795994
1238.05	0.798772
1239.24	0.799908
1240.42	0.798603
1241.61	0.798165
1242.79	0.797903
1243.98	0.796722
1245.16	0.793241
1246.35	0.789599
1247.53	0.785282
1248.72	0.779031
1249.9	0.772733
1251.09	0.768116
1252.27	0.762436
1253.46	0.753147
1254.64	0.744601
1255.83	0.736075
1257.01	0.726866
1258.2	0.718058
1259.38	0.708128
1260.57	0.697887
1261.75	0.68631
1262.94	0.675378
1264.12	0.663638
1265.31	0.650886
1266.49	0.637769
1267.68	0.624019
1268.86	0.609739
1270.05	0.596261
1271.23	0.58332
1272.42	0.569787
1273.6	0.55668
1274.79	0.543059
1275.97	0.530228
1277.16	0.516379
1278.34	0.50388
1279.53	0.491118
1280.71	0.47811
1281.9	0.467114
1283.08	0.457192
1284.27	0.447739
1285.45	0.438412
1286.64	0.430981
1287.82	0.423108
1289.01	0.414787
1290.19	0.407319
1291.38	0.401344
1292.56	0.395162
1293.75	0.388261
1294.93	0.381905
1296.12	0.375719
1297.3	0.371186
1298.49	0.365744
1299.67	0.359874
1300.86	0.354346
1302.04	0.348408
1303.23	0.341951
1304.41	0.335075
1305.6	0.328507
1306.78	0.322521
1307.97	0.315001
1309.15	0.307817
1310.34	0.302036
1311.52	0.297154
1312.71	0.292551
1313.89	0.287166
1315.08	0.281314
1316.26	0.275414
1317.45	0.269497
1318.63	0.263578
1319.82	0.257833
1321	0.25269
1322.19	0.246945
1323.37	0.241702
1324.56	0.238057
1325.74	0.23534
1326.93	0.230821
1328.11	0.225944
1329.3	0.221587
1330.48	0.217437
1331.67	0.214009
1332.85	0.211195
1334.04	0.209431
1335.22	0.206564
1336.41	0.204225
1337.59	0.202129
1338.78	0.20017
1339.96	0.198919
1341.15	0.196673
1342.33	0.193827
1343.52	0.191482
1344.7	0.190676
1345.89	0.188447
1347.07	0.18593
1348.26	0.183838
1349.44	0.181138
1350.63	0.177482
1351.81	0.174425
1353	0.172397
1354.18	0.169795
1355.37	0.167249
1356.55	0.165773
1357.74	0.163488
1358.92	0.160202
1360.11	0.158532
1361.29	0.155892
1362.48	0.154066
1363.66	0.153643
1364.85	0.150606
1366.03	0.148452
1367.22	0.14666
1368.4	0.146399
1369.59	0.144654
1370.77	0.142992
1371.96	0.141537
1373.14	0.140485
1374.33	0.138654
1375.51	0.138127
1376.7	0.137092
1377.88	0.135489
1379.07	0.133423
1380.25	0.132337
1381.44	0.131689
1382.62	0.131159
1383.81	0.130959
1384.99	0.129913
1386.18	0.130132
1387.36	0.129756
1388.55	0.130245
1389.73	0.129624
1390.92	0.128648
1392.1	0.127225
1393.29	0.126607
1394.47	0.126866
1395.66	0.126275
1396.84	0.125763
1398.03	0.123789
1399.21	0.123678
1400.4	0.123268
1401.58	0.121984
1402.77	0.121575
1403.95	0.121367
1405.14	0.120404
1406.32	0.119292
1407.51	0.119395
1408.69	0.119507
1409.88	0.119937
1411.06	0.120099
1412.25	0.120743
1413.43	0.1214
1414.62	0.122273
1415.8	0.123074
1416.99	0.124293
1418.17	0.12679
1419.36	0.130807
1420.54	0.131987
1421.73	0.136181
1422.91	0.141816
1424.1	0.148179
1425.28	0.154835
1426.47	0.164077
1427.65	0.174061
1428.84	0.185998
1430.02	0.199266
1431.21	0.214353
1432.39	0.231628
1433.58	0.250539
1434.76	0.270956
1435.95	0.292167
1437.13	0.315131
1438.32	0.338443
1439.5	0.361647
1440.69	0.384791
1441.87	0.409053
1443.06	0.432372
1444.24	0.454062
1445.43	0.47533
1446.61	0.494495
1447.8	0.511603
1448.98	0.526516
1450.17	0.538346
1451.35	0.545632
1452.54	0.55004
1453.72	0.550036
1454.91	0.547265
1456.09	0.5418
1457.28	0.533161
1458.46	0.520517
1459.65	0.504488
1460.83	0.486856
1462.02	0.466833
1463.2	0.44431
1464.39	0.419993
1465.57	0.393235
1466.76	0.365715
1467.94	0.33986
1469.13	0.31376
1470.31	0.288373
1471.5	0.264247
1472.68	0.240866
1473.87	0.216912
1475.05	0.195916
1476.24	0.177085
1477.42	0.159383
1478.61	0.142752
1479.79	0.128175
1480.98	0.115882
1482.16	0.105363
1483.35	0.0968437
1484.53	0.0893219
1485.72	0.081877
1486.9	0.0763754
1488.09	0.0707291
1489.27	0.0652771
1490.46	0.0628436
1491.64	0.0606027
1492.83	0.0585113
1494.01	0.0571192
1495.2	0.055395
1496.38	0.0552963
1497.57	0.0548636
1498.75	0.0548758
1499.94	0.0544751
1501.12	0.0540923
1502.31	0.0543564
1503.49	0.0539921
1504.68	0.0547538
1505.86	0.056832
1507.05	0.0583712
1508.23	0.0593448
1509.42	0.0604394
1510.6	0.0620873
1511.79	0.0631832
1512.97	0.0632663
1514.16	0.063452
1515.34	0.0640547
1516.53	0.0638371
1517.71	0.0643834
1518.9	0.0646676
1520.08	0.0655914
1521.27	0.065392
1522.45	0.0640595
1523.64	0.0641714
1524.82	0.0644068
1526.01	0.0643878
1527.19	0.0630477
1528.38	0.0625691
1529.56	0.0621941
1530.75	0.0620342
1531.93	0.0607599
1533.12	0.0608624
1534.3	0.0608219
1535.49	0.0604774
1536.67	0.0606631
1537.86	0.0610368
1539.04	0.0614203
1540.23	0.0603811
1541.41	0.059015
1542.6	0.0583896
1543.78	0.0581627
1544.97	0.0572671
1546.15	0.0558953
1547.34	0.0546219
1548.52	0.0546225
1549.71	0.0535814
1550.89	0.051851
1552.08	0.0509647
1553.26	0.0494321
1554.45	0.0475724
1555.63	0.0460731
1556.82	0.0451623
1558	0.044195
1559.19	0.0421794
1560.37	0.0402754
1561.56	0.039708
1562.74	0.0392536
1563.93	0.038288
1565.11	0.0364917
1566.3	0.0360148
1567.48	0.0352608
1568.67	0.0338535
1569.85	0.0322909
1571.04	0.0318833
1572.22	0.0318839
1573.41	0.0314481
1574.59	0.0306772
1575.78	0.0302135
1576.96	0.0296285
1578.15	0.0288355
1579.33	0.0279982
1580.52	0.0270062
1581.7	0.0267867
1582.89	0.0261072
1584.07	0.0247573
1585.26	0.0239794
1586.44	0.0230887
1587.63	0.0219224
1588.81	0.0203917
1590	0.019059
1591.18	0.0182133
1592.37	0.0176104
1593.55	0.0167702
1594.74	0.0154417
1595.92	0.01419
1597.11	0.0130041
1598.29	0.0122167
1599.48	0.0110444
1600.66	0.0104303
1601.85	0.00944628
1603.03	0.00899587
1604.22	0.0083372
1605.4	0.00805925
1606.59	0.00779361
1607.77	0.00657247
1608.96	0.00508711
1610.14	0.00380814
1611.33	0.00293359
1612.51	0.00231216
1613.7	0.00217903
1614.88	0.00161018
1616.07	0.000626975
1617.25	-0.000232301
1618.44	-0.000705515
1619.62	-0.00145749
1620.81	-0.00214558
1621.99	-0.00318416
1623.18	-0.00392292
1624.36	-0.00421088
1625.55	-0.00362045
1626.73	-0.00381745
1627.92	-0.00344073
1629.1	-0.0041741
1630.29	-0.0041738
1631.47	-0.00367033
1632.66	-0.00307987
1633.84	-0.00268026
1635.03	-0.00233291
1636.21	-0.0022429
1637.4	-0.00152707
1638.58	-0.000741381
1639.77	-7.79773e-005
1640.95	0.00151911
1642.14	0.00239694
1643.32	0.00423547
1644.51	0.00583242
1645.69	0.00811913
1646.88	0.009867
1648.06	0.0109212
1649.25	0.0120672
1650.43	0.01391
1651.62	0.0151259
1652.8	0.0169204
1653.99	0.019096
1655.17	0.0209524
1656.36	0.0231751
1657.54	0.0243917
1658.73	0.0259333
1659.91	0.0271872
1661.1	0.0284057
1662.28	0.0291571
1663.47	0.0294164
1664.65	0.0303048
1665.84	0.0308334
1667.02	0.0312133
1668.21	0.0336757
1669.39	0.0346247
1670.58	0.0351655
1671.76	0.0353511
1672.95	0.0354137
1674.13	0.0356576
1675.32	0.036385
1676.5	0.0372679
1677.69	0.0383726
1678.87	0.0392155
1680.06	0.0403783
1681.24	0.0409303
1682.43	0.0421058
1683.61	0.0424843
1684.8	0.0423859
1685.98	0.0430187
1687.17	0.0430048
1688.35	0.0434195
1689.54	0.043243
1690.72	0.0433164
1691.91	0.0436609
1693.09	0.0436704
1694.28	0.0435289
1695.46	0.0438305
1696.65	0.0440377
1697.83	0.0443248
1699.02	0.0442134
1700.2	0.0451336
1701.39	0.0450941
1702.57	0.0453449
1703.76	0.0462155
1704.94	0.0468673
1706.13	0.0473936
1707.31	0.0476244
1708.5	0.0477562
1709.68	0.0483185
1710.87	0.0488464
1712.05	0.048991
1713.24	0.04998
1714.42	0.0510138
1715.61	0.0517382
1716.79	0.0516393
1717.98	0.0517928
1719.16	0.0518993
1720.35	0.0518717
1721.53	0.052116
1722.72	0.0524597
1723.9	0.0526165
1725.09	0.0524004
1726.27	0.0523275
1727.46	0.0517223
1728.64	0.0512026
1729.83	0.0508077
1731.01	0.0495015
1732.2	0.0488628
1733.38	0.048453
1734.57	0.048307
1735.75	0.0473502
1736.94	0.0464561
1738.12	0.0453308
1739.31	0.0448758
1740.49	0.0437752
1741.68	0.0425355
1742.86	0.041295
1744.05	0.0410276
1745.23	0.0397309
1746.42	0.0386875
1747.6	0.0387356
1748.79	0.0382154
1749.97	0.0369235
1751.16	0.0360868
1752.34	0.0361261
1753.53	0.0358893
1754.71	0.0354288
1755.9	0.0349585
1757.08	0.0341879
1758.27	0.0334155
1759.45	0.0323355
1760.64	0.0311617
1761.82	0.0302174
1763.01	0.0292434
1764.19	0.0280628
1765.38	0.027788
1766.56	0.0267981
1767.75	0.0252183
1768.93	0.0235988
1770.12	0.0215031
1771.3	0.0206036
1772.49	0.0187868
1773.67	0.0175962
1774.86	0.0164508
1776.04	0.0154547
1777.23	0.0146285
1778.41	0.0129604
1779.6	0.011573
1780.78	0.0102397
1781.97	0.00837157
1783.15	0.00746616
1784.34	0.00590811
1785.52	0.00444676
1786.71	0.00337245
1787.89	0.00224734
1789.08	0.00152952
1790.26	0.00099255
1791.45	0.000160231
1792.63	-0.000962277
1793.82	-0.00151438
1795	-0.00225414
