405	0.240739
406.185	0.249266
407.37	0.25431
408.555	0.257174
409.74	0.257888
410.925	0.25629
412.11	0.25256
413.295	0.248287
414.48	0.244598
415.665	0.238841
416.85	0.229857
418.035	0.21907
419.22	0.208081
420.405	0.1948
421.59	0.181421
422.775	0.166269
423.96	0.150648
425.145	0.13619
426.33	0.121777
427.515	0.106116
428.7	0.0912482
429.885	0.077743
431.07	0.0649837
432.255	0.0534319
433.44	0.0411164
434.625	0.0304501
435.81	0.0213652
436.995	0.0134166
438.18	0.00662255
439.365	0.000953528
440.55	-0.00339587
441.735	-0.00672775
442.92	-0.00745277
444.105	-0.00997246
445.29	-0.0105657
446.475	-0.00822356
447.66	-0.00489284
448.845	-0.000760526
450.03	0.00536886
451.215	0.0132212
452.4	0.0222311
453.585	0.0350627
454.77	0.0485339
455.955	0.0645
457.14	0.0816049
458.325	0.101004
459.51	0.122116
460.695	0.144204
461.88	0.167383
463.065	0.192366
464.25	0.218673
465.435	0.245023
466.62	0.272035
467.805	0.298621
468.99	0.32527
470.175	0.349763
471.36	0.373474
472.545	0.396244
473.73	0.415109
474.915	0.431032
476.1	0.445048
477.285	0.45616
478.47	0.463313
479.655	0.466927
480.84	0.46782
482.025	0.465286
483.21	0.459357
484.395	0.450522
485.58	0.43678
486.765	0.420672
487.95	0.401995
489.135	0.38108
490.32	0.358843
491.505	0.334917
492.69	0.309216
493.875	0.284724
495.06	0.259089
496.245	0.233262
497.43	0.209525
498.615	0.186768
499.8	0.165633
500.985	0.145136
502.17	0.125241
503.355	0.10659
504.54	0.0902595
505.725	0.076562
506.91	0.0639701
508.095	0.0525128
509.28	0.0417781
510.465	0.0338512
511.65	0.0274259
512.835	0.0224354
514.02	0.0178453
515.205	0.0147256
516.39	0.0125132
517.575	0.0108232
518.76	0.00947298
519.945	0.00803717
521.13	0.00742084
522.315	0.00810418
523.5	0.0106243
524.685	0.0115575
525.87	0.0140469
527.055	0.0170609
528.24	0.020616
529.424	0.0241309
530.61	0.0279364
531.795	0.0316903
532.98	0.0355457
534.165	0.03954
535.35	0.0419741
536.535	0.0444261
537.72	0.0469327
538.905	0.049722
540.09	0.0530086
541.275	0.0550649
542.46	0.0547592
543.645	0.0557546
544.83	0.0559918
546.014	0.0549047
547.199	0.0537533
548.384	0.0521832
549.569	0.049599
550.754	0.0476515
551.939	0.0459902
553.124	0.042987
554.309	0.0399668
555.494	0.0369652
556.679	0.0338199
557.864	0.0300845
559.049	0.0269493
560.234	0.0240927
561.419	0.0219527
562.604	0.0195159
563.789	0.0159644
564.974	0.0136433
566.159	0.0119508
567.344	0.0101135
568.529	0.00904581
569.714	0.00647397
570.899	0.00331818
572.084	0.00137128
573.269	0.000994717
574.454	0.000244683
575.639	-0.000831116
576.824	-0.00121335
578.009	-0.0017011
579.194	-0.00278904
580.379	-0.00314229
581.564	-0.00343421
582.749	-0.00295716
583.934	-0.00282722
585.119	-0.00354967
586.304	-0.00341911
587.489	-0.00357985
588.674	-0.00370204
589.859	-0.00294693
591.044	-0.00234469
592.229	-0.00223143
593.414	-0.00176474
594.599	-0.000742007
595.784	0.000276314
596.969	0.00102494
598.154	0.000756158
599.339	0.00140477
600.524	0.00204189
601.709	0.00245693
602.894	0.00272163
604.079	0.0031764
605.264	0.00348204
606.449	0.00394513
607.634	0.0039676
608.819	0.00444433
610.004	0.00512356
611.189	0.00534456
612.374	0.00586672
613.559	0.0063575
614.744	0.00640101
615.929	0.00714434
617.114	0.00843995
618.299	0.0102987
619.484	0.0118914
620.669	0.0135108
621.854	0.0151811
623.039	0.017371
624.224	0.0200129
625.409	0.0226819
626.594	0.0253155
627.779	0.0278068
628.964	0.0310878
630.149	0.0360424
631.334	0.0393529
632.519	0.0419249
633.704	0.0468472
634.889	0.0509243
636.074	0.0563232
637.259	0.0611365
638.444	0.0659243
639.629	0.071247
640.814	0.0773168
641.999	0.0836425
643.184	0.0900905
644.369	0.097045
645.554	0.105001
646.739	0.11358
647.924	0.121499
649.109	0.129091
650.294	0.13815
651.479	0.147586
652.664	0.156438
653.849	0.165559
655.034	0.17432
656.219	0.183056
657.404	0.190683
658.589	0.197551
659.774	0.203692
660.959	0.209606
662.144	0.214237
663.329	0.217491
664.514	0.220166
665.699	0.221142
666.884	0.220042
668.069	0.217065
669.254	0.21329
670.439	0.210299
671.624	0.204891
672.809	0.198261
673.994	0.191166
675.179	0.182495
676.364	0.173401
677.549	0.164455
678.734	0.155961
679.919	0.146835
681.104	0.137855
682.289	0.129173
683.474	0.120338
684.659	0.113048
685.844	0.107292
687.029	0.102366
688.214	0.0971995
689.399	0.0911285
690.584	0.0865706
691.769	0.0829827
692.954	0.0802697
694.139	0.0783652
695.324	0.077322
696.509	0.0760514
697.694	0.0747654
698.879	0.0739331
700.064	0.073434
701.249	0.0731142
702.434	0.0733579
703.619	0.0738732
704.804	0.0735306
705.989	0.0729604
707.174	0.0732866
708.359	0.073838
709.544	0.0737852
710.729	0.074519
711.914	0.0751897
713.099	0.0745427
714.284	0.0747934
715.469	0.0757844
716.654	0.0758878
717.839	0.0764216
719.024	0.0771748
720.209	0.0781864
721.394	0.0785056
722.579	0.0781334
723.764	0.0784694
724.949	0.0793677
726.134	0.0802118
727.319	0.0810901
728.504	0.081313
729.689	0.0800223
730.874	0.0790744
732.059	0.0797623
733.244	0.0792335
734.429	0.0795068
735.614	0.0801702
736.799	0.0801218
737.984	0.0805111
739.169	0.0810242
740.354	0.0811937
741.539	0.0815006
742.724	0.0820424
743.909	0.0821557
745.094	0.08208
746.279	0.0826905
747.464	0.0839188
748.649	0.0854749
749.834	0.0869344
751.019	0.0885933
752.204	0.0904274
753.389	0.091428
754.574	0.0934099
755.759	0.0958175
756.944	0.098243
758.129	0.100305
759.314	0.103097
760.499	0.105795
761.684	0.108772
762.869	0.112092
764.054	0.114743
765.239	0.117658
766.424	0.120919
767.609	0.12342
768.794	0.12532
769.979	0.127131
771.164	0.128987
772.349	0.131108
773.534	0.132674
774.719	0.134495
775.904	0.134867
777.089	0.136584
778.274	0.138103
779.459	0.139953
780.644	0.143126
781.829	0.147381
783.014	0.153362
784.199	0.159676
785.384	0.167599
786.569	0.177118
787.754	0.188091
788.939	0.201393
790.124	0.215785
791.309	0.231624
792.494	0.249567
793.679	0.269322
794.864	0.290892
796.049	0.312622
797.234	0.335161
798.419	0.358547
799.604	0.381589
800.789	0.403204
801.974	0.422965
803.159	0.442557
804.344	0.460653
805.529	0.47645
806.714	0.49262
807.898	0.504857
809.083	0.515791
810.268	0.524989
811.454	0.532714
812.639	0.538813
813.824	0.545561
815.009	0.553383
816.194	0.561845
817.379	0.571239
818.564	0.582903
819.749	0.598031
820.934	0.615804
822.119	0.635321
823.304	0.657605
824.489	0.682079
825.673	0.707261
826.858	0.735462
828.043	0.764946
829.228	0.794011
830.413	0.8232
831.598	0.851153
832.783	0.875402
833.968	0.900055
835.153	0.919402
836.338	0.932758
837.523	0.942617
838.708	0.947738
839.893	0.948225
841.078	0.943642
842.263	0.935327
843.448	0.92267
844.633	0.905134
845.818	0.884092
847.003	0.860398
848.188	0.833589
849.373	0.804167
850.558	0.773342
851.743	0.739821
852.928	0.703233
854.113	0.667812
855.298	0.632119
856.483	0.595331
857.668	0.558235
858.853	0.52115
860.038	0.485524
861.223	0.449957
862.408	0.41528
863.593	0.383024
864.778	0.350941
865.963	0.321695
867.148	0.295247
868.333	0.269884
869.518	0.24577
870.703	0.224987
871.888	0.207217
873.073	0.192752
874.258	0.180909
875.443	0.171365
876.628	0.164974
877.813	0.161685
878.998	0.160134
880.183	0.161067
881.368	0.164328
882.553	0.169067
883.738	0.17585
884.923	0.183437
886.108	0.192429
887.293	0.203323
888.478	0.214773
889.663	0.228127
890.848	0.240486
892.033	0.252891
893.218	0.26602
894.403	0.278975
895.588	0.291684
896.773	0.302971
897.958	0.313021
899.143	0.322492
900.328	0.331454
901.513	0.338255
902.698	0.34437
903.883	0.349026
905.068	0.350673
906.253	0.352474
907.438	0.351022
908.623	0.347941
909.808	0.343261
910.993	0.335832
912.178	0.32651
913.363	0.314754
914.548	0.300446
915.733	0.285818
916.918	0.27024
918.103	0.252298
919.288	0.233305
920.473	0.213918
921.658	0.1934
922.843	0.172667
924.028	0.153248
925.213	0.134268
926.398	0.115492
927.583	0.0972233
928.768	0.0804464
929.953	0.0655542
931.138	0.0527052
932.323	0.041961
933.508	0.0326748
934.693	0.0242274
935.878	0.0169686
937.063	0.0114779
938.248	0.00773296
939.433	0.00624494
940.618	0.00598684
941.803	0.00658951
942.988	0.00819684
944.173	0.0111087
945.358	0.0154944
946.543	0.0202759
947.728	0.0254322
948.913	0.0305624
950.098	0.0339898
951.283	0.0387936
952.468	0.0435177
953.653	0.0488285
954.838	0.0559226
956.023	0.0618603
957.208	0.0656135
958.393	0.0689258
959.578	0.0714967
960.763	0.0721085
961.948	0.0716751
963.133	0.0707113
964.318	0.0685775
965.503	0.0650674
966.688	0.060519
967.873	0.056065
969.058	0.051234
970.243	0.0456011
971.428	0.0401018
972.613	0.0329959
973.798	0.0254113
974.983	0.0187976
976.168	0.0130499
977.353	0.00735839
978.538	0.00299274
979.723	0.000286076
980.908	-0.00316295
982.093	-0.00598042
983.278	-0.00733305
984.463	-0.00820466
985.648	-0.00814836
986.833	-0.00640453
988.018	-0.004328
989.203	-0.00334445
990.388	-0.000343999
991.573	0.00224802
992.758	0.00691737
993.943	0.010344
995.128	0.0165457
996.313	0.024107
997.498	0.0310758
998.683	0.0398849
999.868	0.049165
1001.05	0.0600426
1002.24	0.0728299
1003.42	0.0864692
1004.61	0.101292
1005.79	0.117554
1006.98	0.134395
1008.16	0.153446
1009.35	0.174806
1010.53	0.197037
1011.72	0.221974
1012.9	0.248365
1014.09	0.273957
1015.27	0.299824
1016.46	0.327875
1017.64	0.357869
1018.83	0.388544
1020.01	0.419239
1021.2	0.449835
1022.38	0.480036
1023.57	0.510112
1024.75	0.540599
1025.94	0.569205
1027.12	0.595264
1028.31	0.619991
1029.49	0.643309
1030.68	0.6638
1031.86	0.682421
1033.05	0.700252
1034.23	0.716329
1035.42	0.729808
1036.6	0.739981
1037.79	0.747278
1038.97	0.752611
1040.16	0.755676
1041.34	0.755906
1042.53	0.753731
1043.71	0.750735
1044.9	0.746774
1046.08	0.741422
1047.27	0.734682
1048.45	0.725161
1049.64	0.714955
1050.82	0.704646
1052.01	0.692978
1053.19	0.679924
1054.38	0.666965
1055.56	0.653197
1056.75	0.639571
1057.93	0.626433
1059.12	0.613746
1060.3	0.60129
1061.49	0.59013
1062.67	0.579332
1063.86	0.567726
1065.04	0.555775
1066.23	0.546305
1067.41	0.538052
1068.6	0.53024
1069.78	0.522969
1070.97	0.516364
1072.15	0.509887
1073.34	0.506206
1074.52	0.502538
1075.71	0.50063
1076.89	0.498299
1078.08	0.497523
1079.26	0.496379
1080.45	0.495096
1081.63	0.496058
1082.82	0.496854
1084	0.496965
1085.19	0.497964
1086.37	0.498375
1087.56	0.500472
1088.74	0.502474
1089.93	0.503097
1091.11	0.502921
1092.3	0.503264
1093.48	0.499896
1094.67	0.496452
1095.85	0.491779
1097.04	0.485336
1098.22	0.477242
1099.41	0.468201
1100.59	0.458356
1101.78	0.445838
1102.96	0.43179
1104.15	0.41678
1105.33	0.399172
1106.52	0.379141
1107.7	0.35866
1108.89	0.336562
1110.07	0.312053
1111.26	0.290718
1112.44	0.267827
1113.63	0.244481
1114.81	0.222187
1116	0.200445
1117.18	0.179867
1118.37	0.160063
1119.55	0.142186
1120.74	0.125807
1121.92	0.110363
1123.11	0.0950224
1124.29	0.0822628
1125.48	0.0713645
1126.66	0.0611436
1127.85	0.0536105
1129.03	0.0444171
1130.22	0.038342
1131.4	0.034021
1132.59	0.0294783
1133.77	0.0251974
1134.96	0.0215214
1136.14	0.0171954
1137.33	0.01557
1138.51	0.0128105
1139.7	0.0100324
1140.88	0.00660502
1142.07	0.00423148
1143.25	0.00257126
1144.44	0.00131675
1145.62	-0.000984996
1146.81	-0.00101115
1147.99	-0.00179612
1149.18	-0.00394953
1150.36	-0.00396787
1151.55	-0.00419265
1152.73	-0.00485025
1153.92	-0.00426603
1155.1	-0.00362859
1156.29	-0.00215822
1157.47	-0.000455027
1158.66	0.00143955
1159.84	0.00377262
1161.03	0.00566343
1162.21	0.00952436
1163.4	0.0150948
1164.58	0.0194595
1165.77	0.0237185
1166.95	0.0304281
1168.14	0.0364737
1169.32	0.0437579
1170.51	0.0524292
1171.69	0.0619034
1172.88	0.0719627
1174.06	0.0814688
1175.25	0.0914688
1176.43	0.102945
1177.62	0.114247
1178.8	0.12735
1179.99	0.139587
1181.17	0.152288
1182.36	0.166032
1183.54	0.18077
1184.73	0.194943
1185.91	0.20971
1187.1	0.224568
1188.28	0.239486
1189.47	0.253714
1190.65	0.267499
1191.84	0.282716
1193.02	0.298971
1194.21	0.314321
1195.39	0.32933
1196.58	0.344669
1197.76	0.359495
1198.95	0.374527
1200.13	0.390237
1201.32	0.406218
1202.5	0.42229
1203.69	0.438455
1204.87	0.454097
1206.06	0.470552
1207.24	0.48718
1208.43	0.504573
1209.61	0.521865
1210.8	0.538118
1211.98	0.556148
1213.17	0.57316
1214.35	0.590289
1215.54	0.607904
1216.72	0.625152
1217.91	0.642014
1219.09	0.658393
1220.28	0.674693
1221.46	0.690781
1222.65	0.707371
1223.83	0.722125
1225.02	0.736979
1226.2	0.749506
1227.39	0.762135
1228.57	0.775482
1229.76	0.785772
1230.94	0.797205
1232.13	0.806568
1233.31	0.816113
1234.5	0.82227
1235.68	0.826628
1236.87	0.832169
1238.05	0.835306
1239.24	0.837362
1240.42	0.83675
1241.61	0.835412
1242.79	0.833697
1243.98	0.832064
1245.16	0.828986
1246.35	0.82471
1247.53	0.82163
1248.72	0.816379
1249.9	0.810459
1251.09	0.802474
1252.27	0.795846
1253.46	0.789337
1254.64	0.780009
1255.83	0.77096
1257.01	0.762562
1258.2	0.753701
1259.38	0.743684
1260.57	0.732518
1261.75	0.721497
1262.94	0.709733
1264.12	0.697078
1265.31	0.683749
1266.49	0.669892
1267.68	0.656204
1268.86	0.643325
1270.05	0.628975
1271.23	0.614969
1272.42	0.602329
1273.6	0.587062
1274.79	0.571884
1275.97	0.558216
1277.16	0.545922
1278.34	0.533064
1279.53	0.520921
1280.71	0.508477
1281.9	0.497766
1283.08	0.486625
1284.27	0.477313
1285.45	0.467006
1286.64	0.457219
1287.82	0.448746
1289.01	0.440236
1290.19	0.432509
1291.38	0.427649
1292.56	0.421187
1293.75	0.415265
1294.93	0.408844
1296.12	0.401896
1297.3	0.395354
1298.49	0.391032
1299.67	0.384314
1300.86	0.377166
1302.04	0.370655
1303.23	0.365528
1304.41	0.360621
1305.6	0.354795
1306.78	0.348221
1307.97	0.341336
1309.15	0.33502
1310.34	0.328691
1311.52	0.321364
1312.71	0.314722
1313.89	0.309037
1315.08	0.301956
1316.26	0.294082
1317.45	0.287927
1318.63	0.28281
1319.82	0.277056
1321	0.271264
1322.19	0.265766
1323.37	0.261553
1324.56	0.25754
1325.74	0.253463
1326.93	0.2496
1328.11	0.24576
1329.3	0.242864
1330.48	0.239815
1331.67	0.235822
1332.85	0.232911
1334.04	0.232075
1335.22	0.230024
1336.41	0.227138
1337.59	0.225606
1338.78	0.22285
1339.96	0.220348
1341.15	0.217269
1342.33	0.215318
1343.52	0.214223
1344.7	0.212444
1345.89	0.210818
1347.07	0.208773
1348.26	0.206817
1349.44	0.20527
1350.63	0.202958
1351.81	0.200374
1353	0.198873
1354.18	0.197546
1355.37	0.195949
1356.55	0.19358
1357.74	0.191565
1358.92	0.189958
1360.11	0.186317
1361.29	0.184093
1362.48	0.181688
1363.66	0.179445
1364.85	0.179183
1366.03	0.177258
1367.22	0.175364
1368.4	0.174821
1369.59	0.174498
1370.77	0.172929
1371.96	0.170529
1373.14	0.167809
1374.33	0.166979
1375.51	0.164865
1376.7	0.163082
1377.88	0.161996
1379.07	0.160781
1380.25	0.159857
1381.44	0.158383
1382.62	0.156859
1383.81	0.156396
1384.99	0.154538
1386.18	0.152702
1387.36	0.150842
1388.55	0.149523
1389.73	0.150246
1390.92	0.150904
1392.1	0.151268
1393.29	0.152638
1394.47	0.152739
1395.66	0.152185
1396.84	0.15226
1398.03	0.151902
1399.21	0.151707
1400.4	0.151488
1401.58	0.151275
1402.77	0.152955
1403.95	0.154434
1405.14	0.155479
1406.32	0.155433
1407.51	0.154819
1408.69	0.154328
1409.88	0.153244
1411.06	0.152429
1412.25	0.153314
1413.43	0.154925
1414.62	0.156578
1415.8	0.156942
1416.99	0.158533
1418.17	0.162505
1419.36	0.164623
1420.54	0.16619
1421.73	0.171039
1422.91	0.178342
1424.1	0.186562
1425.28	0.194849
1426.47	0.205263
1427.65	0.217699
1428.84	0.230215
1430.02	0.243059
1431.21	0.258473
1432.39	0.276739
1433.58	0.296684
1434.76	0.31795
1435.95	0.339302
1437.13	0.362332
1438.32	0.385034
1439.5	0.408531
1440.69	0.431554
1441.87	0.455581
1443.06	0.479317
1444.24	0.502208
1445.43	0.522526
1446.61	0.543029
1447.8	0.559727
1448.98	0.573515
1450.17	0.585657
1451.35	0.59379
1452.54	0.59956
1453.72	0.603239
1454.91	0.601916
1456.09	0.595785
1457.28	0.585337
1458.46	0.572994
1459.65	0.55584
1460.83	0.535941
1462.02	0.515809
1463.2	0.49484
1464.39	0.469962
1465.57	0.444367
1466.76	0.418098
1467.94	0.391929
1469.13	0.363602
1470.31	0.337137
1471.5	0.311757
1472.68	0.287672
1473.87	0.265263
1475.05	0.245418
1476.24	0.226419
1477.42	0.210764
1478.61	0.194501
1479.79	0.179083
1480.98	0.166952
1482.16	0.157499
1483.35	0.148994
1484.53	0.141902
1485.72	0.135377
1486.9	0.129413
1488.09	0.125202
1489.27	0.122237
1490.46	0.120581
1491.64	0.11788
1492.83	0.116743
1494.01	0.116454
1495.2	0.116769
1496.38	0.117497
1497.57	0.117634
1498.75	0.117274
1499.94	0.116881
1501.12	0.1166
1502.31	0.117201
1503.49	0.118746
1504.68	0.11938
1505.86	0.11972
1507.05	0.122249
1508.23	0.123833
1509.42	0.126355
1510.6	0.126444
1511.79	0.126302
1512.97	0.126895
1514.16	0.128044
1515.34	0.128793
1516.53	0.129215
1517.71	0.129403
1518.9	0.129469
1520.08	0.128843
1521.27	0.127668
1522.45	0.127062
1523.64	0.12579
1524.82	0.124442
1526.01	0.12179
1527.19	0.119755
1528.38	0.118454
1529.56	0.11635
1530.75	0.114134
1531.93	0.112286
1533.12	0.110986
1534.3	0.109893
1535.49	0.1084
1536.67	0.107499
1537.86	0.106357
1539.04	0.104715
1540.23	0.102106
1541.41	0.0998518
1542.6	0.0985285
1543.78	0.0972422
1544.97	0.0959653
1546.15	0.094795
1547.34	0.0929082
1548.52	0.0914921
1549.71	0.0903374
1550.89	0.0884604
1552.08	0.086393
1553.26	0.0848526
1554.45	0.0838333
1555.63	0.0829254
1556.82	0.0823432
1558	0.0813579
1559.19	0.0796209
1560.37	0.0784549
1561.56	0.0771617
1562.74	0.0755546
1563.93	0.0740823
1565.11	0.0727724
1566.3	0.0705265
1567.48	0.0691738
1568.67	0.0680017
1569.85	0.065935
1571.04	0.0637284
1572.22	0.0623555
1573.41	0.0612301
1574.59	0.0595128
1575.78	0.0580624
1576.96	0.0566479
1578.15	0.0551525
1579.33	0.0536976
1580.52	0.0524958
1581.7	0.0511289
1582.89	0.0497286
1584.07	0.047855
1585.26	0.0461171
1586.44	0.044895
1587.63	0.0435092
1588.81	0.0418269
1590	0.0396187
1591.18	0.0378691
1592.37	0.0361418
1593.55	0.034246
1594.74	0.0321843
1595.92	0.030232
1597.11	0.0286709
1598.29	0.0269564
1599.48	0.0253175
1600.66	0.0240883
1601.85	0.0226363
1603.03	0.0205546
1604.22	0.0187106
1605.4	0.0171114
1606.59	0.0159654
1607.77	0.0141834
1608.96	0.0131056
1610.14	0.0117573
1611.33	0.0107183
1612.51	0.00997839
1613.7	0.00786862
1614.88	0.00687085
1616.07	0.0056744
1617.25	0.00393171
1618.44	0.00303499
1619.62	0.00268824
1620.81	0.00207606
1621.99	0.000653363
1623.18	-0.000730359
1624.36	-0.00103406
1625.55	-0.00220332
1626.73	-0.00326119
1627.92	-0.00423108
1629.1	-0.00412389
1630.29	-0.00411114
1631.47	-0.00353367
1632.66	-0.00344788
1633.84	-0.00342788
1635.03	-0.00267383
1636.21	-0.00262475
1637.4	-0.0015702
1638.58	0.000405187
1639.77	0.00179412
1640.95	0.00284067
1642.14	0.00459378
1643.32	0.00648653
1644.51	0.00826659
1645.69	0.0101078
1646.88	0.0109697
1648.06	0.0118322
1649.25	0.0144906
1650.43	0.0163584
1651.62	0.0175098
1652.8	0.0195479
1653.99	0.0219868
1655.17	0.0237738
1656.36	0.0259794
1657.54	0.0278746
1658.73	0.0293686
1659.91	0.0308716
1661.1	0.0317691
1662.28	0.0326528
1663.47	0.0342845
1664.65	0.035916
1665.84	0.0361682
1667.02	0.0376335
1668.21	0.0390864
1669.39	0.0396861
1670.58	0.0396137
1671.76	0.0401539
1672.95	0.0400127
1674.13	0.0407748
1675.32	0.0418895
1676.5	0.0430887
1677.69	0.0443295
1678.87	0.0457225
1680.06	0.0468504
1681.24	0.0483593
1682.43	0.0492459
1683.61	0.0505426
1684.8	0.0508468
1685.98	0.0518847
1687.17	0.0525953
1688.35	0.0530555
1689.54	0.0547165
1690.72	0.0562697
1691.91	0.057126
1693.09	0.0578457
1694.28	0.0579657
1695.46	0.0577236
1696.65	0.0579491
1697.83	0.058178
1699.02	0.0584306
1700.2	0.0588286
1701.39	0.0596526
1702.57	0.0605668
1703.76	0.0615454
1704.94	0.0628432
1706.13	0.0630041
1707.31	0.0624847
1708.5	0.0632565
1709.68	0.063963
1710.87	0.0651919
1712.05	0.0662457
1713.24	0.0666796
1714.42	0.0669325
1715.61	0.0676702
1716.79	0.0670676
1717.98	0.0665793
1719.16	0.0665991
1720.35	0.0667523
1721.53	0.0659014
1722.72	0.0657975
1723.9	0.0648147
1725.09	0.0638599
1726.27	0.0626767
1727.46	0.0620744
1728.64	0.060301
1729.83	0.0591156
1731.01	0.057966
1732.2	0.0572369
1733.38	0.0568149
1734.57	0.0563802
1735.75	0.0552943
1736.94	0.0543259
1738.12	0.0535641
1739.31	0.0533022
1740.49	0.053686
1741.68	0.0524729
1742.86	0.0520412
1744.05	0.0513968
1745.23	0.0515895
1746.42	0.0511701
1747.6	0.0507038
1748.79	0.0500632
1749.97	0.0496332
1751.16	0.049186
1752.34	0.0487288
1753.53	0.0477605
1754.71	0.0464488
1755.9	0.0463283
1757.08	0.0451492
1758.27	0.0435817
1759.45	0.0426183
1760.64	0.0409159
1761.82	0.0392645
1763.01	0.0381394
1764.19	0.0372326
1765.38	0.0362296
1766.56	0.0348561
1767.75	0.0335696
1768.93	0.0316663
1770.12	0.0307044
1771.3	0.0289082
1772.49	0.0268741
1773.67	0.0255556
1774.86	0.0245318
1776.04	0.0238425
1777.23	0.0240556
1778.41	0.022563
1779.6	0.0208687
1780.78	0.01869
1781.97	0.0166772
1783.15	0.014819
1784.34	0.0131479
1785.52	0.0115771
1786.71	0.0099463
1787.89	0.0083763
1789.08	0.00676242
1790.26	0.00567145
1791.45	0.00399437
1792.63	0.0019775
1793.82	0.000589987
1795	-7.75485e-005
