405	0.234204
406.185	0.242766
407.37	0.250123
408.555	0.255482
409.74	0.258679
410.925	0.260215
412.11	0.258515
413.295	0.254733
414.48	0.25186
415.665	0.246153
416.85	0.237262
418.035	0.227989
419.22	0.216185
420.405	0.20558
421.59	0.192875
422.775	0.17777
423.96	0.161991
425.145	0.145972
426.33	0.129812
427.515	0.114913
428.7	0.0995514
429.885	0.0846864
431.07	0.0689525
432.255	0.0566707
433.44	0.0452984
434.625	0.0358182
435.81	0.0274998
436.995	0.0194456
438.18	0.0119509
439.365	0.00506609
440.55	-0.00217403
441.735	-0.00645279
442.92	-0.00774198
444.105	-0.00933366
445.29	-0.00967512
446.475	-0.00961575
447.66	-0.00813252
448.845	-0.00544416
450.03	-0.00112151
451.215	0.00608905
452.4	0.0155914
453.585	0.024594
454.77	0.0351886
455.955	0.048603
457.14	0.064217
458.325	0.0823932
459.51	0.102636
460.695	0.124295
461.88	0.146758
463.065	0.170802
464.25	0.196816
465.435	0.223559
466.62	0.25079
467.805	0.27874
468.99	0.307155
470.175	0.335137
471.36	0.359697
472.545	0.384269
473.73	0.407962
474.915	0.428747
476.1	0.446754
477.285	0.462572
478.47	0.475131
479.655	0.483644
480.84	0.489798
482.025	0.492112
483.21	0.489632
484.395	0.482633
485.58	0.473292
486.765	0.459466
487.95	0.442816
489.135	0.423551
490.32	0.402473
491.505	0.380558
492.69	0.356101
493.875	0.330517
495.06	0.305766
496.245	0.280723
497.43	0.25459
498.615	0.230955
499.8	0.206326
500.985	0.182522
502.17	0.160789
503.355	0.141753
504.54	0.124333
505.725	0.10754
506.91	0.0935994
508.095	0.0807956
509.28	0.0694944
510.465	0.0596483
511.65	0.0510595
512.835	0.0455055
514.02	0.0392204
515.205	0.0332367
516.39	0.0291594
517.575	0.0258815
518.76	0.0231605
519.945	0.0224036
521.13	0.022296
522.315	0.0227616
523.5	0.0239083
524.685	0.0256324
525.87	0.0273128
527.055	0.0281522
528.24	0.0307199
529.424	0.0334532
530.61	0.0359651
531.795	0.0378977
532.98	0.0396571
534.165	0.0422657
535.35	0.0450508
536.535	0.04815
537.72	0.0509433
538.905	0.053039
540.09	0.0540543
541.275	0.0535041
542.46	0.0525255
543.645	0.0521475
544.83	0.051955
546.014	0.0519209
547.199	0.0511625
548.384	0.0490369
549.569	0.0469802
550.754	0.0455338
551.939	0.0433751
553.124	0.0422558
554.309	0.0402213
555.494	0.0370147
556.679	0.0338871
557.864	0.0304533
559.049	0.0285864
560.234	0.0279709
561.419	0.02654
562.604	0.0242546
563.789	0.0227693
564.974	0.0219958
566.159	0.0207858
567.344	0.0194889
568.529	0.0190787
569.714	0.0167141
570.899	0.0162933
572.084	0.0150146
573.269	0.0133162
574.454	0.012703
575.639	0.0117716
576.824	0.0109213
578.009	0.00994087
579.194	0.0078735
580.379	0.00611713
581.564	0.00502061
582.749	0.00408797
583.934	0.00163456
585.119	0.00157664
586.304	0.00128421
587.489	0.00030595
588.674	-0.000164949
589.859	-0.00159924
591.044	-0.00224538
592.229	-0.00251875
593.414	-0.00343107
594.599	-0.00402332
595.784	-0.00400181
596.969	-0.00465638
598.154	-0.0042657
599.339	-0.00445687
600.524	-0.00410632
601.709	-0.0040669
602.894	-0.0026329
604.079	-0.00261414
605.264	-0.0025599
606.449	-0.0029617
607.634	-0.00290503
608.819	-0.00249812
610.004	-0.00237199
611.189	-0.00213144
612.374	-0.00145181
613.559	-0.000975128
614.744	-0.000376773
615.929	0.000108151
617.114	0.000118498
618.299	0.00183134
619.484	0.00302592
620.669	0.00375769
621.854	0.00300326
623.039	0.00286431
624.224	0.00358354
625.409	0.00492352
626.594	0.00691636
627.779	0.00948871
628.964	0.01221
630.149	0.0147133
631.334	0.0173021
632.519	0.0197197
633.704	0.0228172
634.889	0.0273083
636.074	0.0304998
637.259	0.0336939
638.444	0.0389446
639.629	0.0439035
640.814	0.0502345
641.999	0.0566576
643.184	0.0629135
644.369	0.0694607
645.554	0.0762972
646.739	0.0838349
647.924	0.0922463
649.109	0.100779
650.294	0.109163
651.479	0.118491
652.664	0.128236
653.849	0.137491
655.034	0.147015
656.219	0.15613
657.404	0.16385
658.589	0.171135
659.774	0.177671
660.959	0.18278
662.144	0.187237
663.329	0.19173
664.514	0.195414
665.699	0.196905
666.884	0.19579
668.069	0.193898
669.254	0.192245
670.439	0.188743
671.624	0.181722
672.809	0.175256
673.994	0.168262
675.179	0.158843
676.364	0.150378
677.549	0.141627
678.734	0.132441
679.919	0.124238
681.104	0.116146
682.289	0.107216
683.474	0.0981586
684.659	0.089756
685.844	0.0830759
687.029	0.0770175
688.214	0.0701017
689.399	0.0657746
690.584	0.0617582
691.769	0.0572658
692.954	0.0539906
694.139	0.0528281
695.324	0.0501171
696.509	0.0490996
697.694	0.048643
698.879	0.0480169
700.064	0.047458
701.249	0.0471468
702.434	0.0470123
703.619	0.0469262
704.804	0.0468487
705.989	0.0466065
707.174	0.0466059
708.359	0.0454706
709.544	0.0467717
710.729	0.0462423
711.914	0.0460143
713.099	0.0460745
714.284	0.045955
715.469	0.0450711
716.654	0.0452565
717.839	0.0454935
719.024	0.0455626
720.209	0.0459312
721.394	0.0462953
722.579	0.0461326
723.764	0.0459568
724.949	0.046396
726.134	0.0470476
727.319	0.0478514
728.504	0.048035
729.689	0.0488974
730.874	0.0497749
732.059	0.0498085
733.244	0.0524578
734.429	0.0534135
735.614	0.0529475
736.799	0.0530378
737.984	0.0529531
739.169	0.0526161
740.354	0.0527011
741.539	0.053896
742.724	0.0547253
743.909	0.0551595
745.094	0.0553627
746.279	0.0549161
747.464	0.0553438
748.649	0.0559484
749.834	0.05638
751.019	0.0566497
752.204	0.0559426
753.389	0.056957
754.574	0.0572114
755.759	0.058018
756.944	0.0609077
758.129	0.0627306
759.314	0.0667664
760.499	0.069073
761.684	0.0715742
762.869	0.0735299
764.054	0.0762462
765.239	0.0791127
766.424	0.0821178
767.609	0.0857061
768.794	0.0893811
769.979	0.0929591
771.164	0.0955969
772.349	0.0984502
773.534	0.102518
774.719	0.103893
775.904	0.105227
777.089	0.107501
778.274	0.107543
779.459	0.109992
780.644	0.112172
781.829	0.116087
783.014	0.120478
784.199	0.125642
785.384	0.131596
786.569	0.138078
787.754	0.145635
788.939	0.156023
790.124	0.168003
791.309	0.180861
792.494	0.19629
793.679	0.214141
794.864	0.233258
796.049	0.254155
797.234	0.275964
798.419	0.297948
799.604	0.320953
800.789	0.3434
801.974	0.365657
803.159	0.387713
804.344	0.408075
805.529	0.426651
806.714	0.443292
807.898	0.456252
809.083	0.469386
810.268	0.480866
811.454	0.49048
812.639	0.498451
813.824	0.506038
815.009	0.513159
816.194	0.520232
817.379	0.528823
818.564	0.539211
819.749	0.550732
820.934	0.564374
822.119	0.581104
823.304	0.60075
824.489	0.6246
825.673	0.650261
826.858	0.678674
828.043	0.709358
829.228	0.741217
830.413	0.773289
831.598	0.803741
832.783	0.832797
833.968	0.859981
835.153	0.88616
836.338	0.907242
837.523	0.924179
838.708	0.937109
839.893	0.944735
841.078	0.948225
842.263	0.945649
843.448	0.938383
844.633	0.926882
845.818	0.910498
847.003	0.889347
848.188	0.864932
849.373	0.838642
850.558	0.809679
851.743	0.777592
852.928	0.743646
854.113	0.708473
855.298	0.672643
856.483	0.634932
857.668	0.596335
858.853	0.558223
860.038	0.520692
861.223	0.483995
862.408	0.447174
863.593	0.412857
864.778	0.377928
865.963	0.34573
867.148	0.315405
868.333	0.286301
869.518	0.259629
870.703	0.236878
871.888	0.216061
873.073	0.197117
874.258	0.182196
875.443	0.171885
876.628	0.164391
877.813	0.157967
878.998	0.153556
880.183	0.152431
881.368	0.153212
882.553	0.156027
883.738	0.161807
884.923	0.168387
886.108	0.176036
887.293	0.185928
888.478	0.197092
889.663	0.207507
890.848	0.219138
892.033	0.231312
893.218	0.242552
894.403	0.253586
895.588	0.264489
896.773	0.2763
897.958	0.287674
899.143	0.297021
900.328	0.307345
901.513	0.315796
902.698	0.322018
903.883	0.326512
905.068	0.330545
906.253	0.332593
907.438	0.333571
908.623	0.332337
909.808	0.330134
910.993	0.326114
912.178	0.319507
913.363	0.310547
914.548	0.298208
915.733	0.284218
916.918	0.26975
918.103	0.252992
919.288	0.234388
920.473	0.214813
921.658	0.194916
922.843	0.175725
924.028	0.155464
925.213	0.135114
926.398	0.115471
927.583	0.0971832
928.768	0.0787834
929.953	0.0615987
931.138	0.0465648
932.323	0.0328169
933.508	0.0228911
934.693	0.0119686
935.878	0.00394425
937.063	-0.00175569
938.248	-0.00672752
939.433	-0.00830578
940.618	-0.0105657
941.803	-0.0104933
942.988	-0.00961336
944.173	-0.00733668
945.358	-0.00469549
946.543	-0.00130848
947.728	0.00304203
948.913	0.00804419
950.098	0.014742
951.283	0.0212435
952.468	0.0278766
953.653	0.0348632
954.838	0.0418266
956.023	0.0488815
957.208	0.0559335
958.393	0.0631266
959.578	0.0696233
960.763	0.0745614
961.948	0.0785888
963.133	0.0823495
964.318	0.0861549
965.503	0.0900223
966.688	0.093073
967.873	0.0952976
969.058	0.0974349
970.243	0.099847
971.428	0.102786
972.613	0.105819
973.798	0.109428
974.983	0.113725
976.168	0.118318
977.353	0.122553
978.538	0.128745
979.723	0.137014
980.908	0.144786
982.093	0.153053
983.278	0.158588
984.463	0.164025
985.648	0.170117
986.833	0.175251
988.018	0.179646
989.203	0.182659
990.388	0.185701
991.573	0.187163
992.758	0.186741
993.943	0.1839
995.128	0.183777
996.313	0.180648
997.498	0.177282
998.683	0.174452
999.868	0.170396
1001.05	0.169703
1002.24	0.171072
1003.42	0.17274
1004.61	0.17541
1005.79	0.180331
1006.98	0.188302
1008.16	0.197525
1009.35	0.209911
1010.53	0.224863
1011.72	0.244249
1012.9	0.264332
1014.09	0.28647
1015.27	0.311224
1016.46	0.337788
1017.64	0.367654
1018.83	0.397739
1020.01	0.428007
1021.2	0.46079
1022.38	0.495747
1023.57	0.530088
1024.75	0.563507
1025.94	0.59758
1027.12	0.630423
1028.31	0.661486
1029.49	0.690671
1030.68	0.717561
1031.86	0.742521
1033.05	0.764433
1034.23	0.782629
1035.42	0.796907
1036.6	0.808524
1037.79	0.818687
1038.97	0.825315
1040.16	0.827048
1041.34	0.825351
1042.53	0.822519
1043.71	0.817663
1044.9	0.809238
1046.08	0.799679
1047.27	0.789143
1048.45	0.775953
1049.64	0.761629
1050.82	0.746586
1052.01	0.731063
1053.19	0.715966
1054.38	0.701225
1055.56	0.685297
1056.75	0.668848
1057.93	0.653006
1059.12	0.638086
1060.3	0.624935
1061.49	0.609368
1062.67	0.59471
1063.86	0.58244
1065.04	0.568732
1066.23	0.557539
1067.41	0.548537
1068.6	0.539063
1069.78	0.531583
1070.97	0.524149
1072.15	0.516642
1073.34	0.511853
1074.52	0.50764
1075.71	0.503044
1076.89	0.499976
1078.08	0.496412
1079.26	0.493744
1080.45	0.492685
1081.63	0.490967
1082.82	0.490169
1084	0.489629
1085.19	0.488583
1086.37	0.488599
1087.56	0.488559
1088.74	0.491037
1089.93	0.492049
1091.11	0.49054
1092.3	0.488903
1093.48	0.487975
1094.67	0.486347
1095.85	0.48322
1097.04	0.480476
1098.22	0.47493
1099.41	0.465856
1100.59	0.455275
1101.78	0.443809
1102.96	0.430016
1104.15	0.415092
1105.33	0.398322
1106.52	0.378378
1107.7	0.357961
1108.89	0.336404
1110.07	0.315114
1111.26	0.292733
1112.44	0.270154
1113.63	0.247608
1114.81	0.223489
1116	0.202005
1117.18	0.182046
1118.37	0.162786
1119.55	0.143431
1120.74	0.126554
1121.92	0.111971
1123.11	0.0983188
1124.29	0.0850866
1125.48	0.07322
1126.66	0.0640053
1127.85	0.0562423
1129.03	0.0486392
1130.22	0.0413545
1131.4	0.0341409
1132.59	0.0295104
1133.77	0.0240441
1134.96	0.0196841
1136.14	0.0175329
1137.33	0.0153135
1138.51	0.0125238
1139.7	0.00950645
1140.88	0.00562007
1142.07	0.00389971
1143.25	0.00227076
1144.44	0.000354725
1145.62	-0.00134583
1146.81	-0.00235945
1147.99	-0.0034457
1149.18	-0.00436618
1150.36	-0.00466129
1151.55	-0.00407025
1152.73	-0.00435857
1153.92	-0.00499263
1155.1	-0.004587
1156.29	-0.0036854
1157.47	-0.00295968
1158.66	-0.00107333
1159.84	0.000815944
1161.03	0.00247153
1162.21	0.00512434
1163.4	0.00825708
1164.58	0.0127042
1165.77	0.0182453
1166.95	0.0237662
1168.14	0.0283278
1169.32	0.0342831
1170.51	0.0414215
1171.69	0.0488131
1172.88	0.0572084
1174.06	0.0663987
1175.25	0.0761337
1176.43	0.0853405
1177.62	0.0959173
1178.8	0.107538
1179.99	0.119425
1181.17	0.130828
1182.36	0.142798
1183.54	0.155588
1184.73	0.169199
1185.91	0.182894
1187.1	0.196082
1188.28	0.209519
1189.47	0.223331
1190.65	0.236964
1191.84	0.250357
1193.02	0.264841
1194.21	0.280209
1195.39	0.295714
1196.58	0.31062
1197.76	0.325314
1198.95	0.339437
1200.13	0.353613
1201.32	0.367118
1202.5	0.381508
1203.69	0.39672
1204.87	0.411867
1206.06	0.427396
1207.24	0.443001
1208.43	0.460096
1209.61	0.476319
1210.8	0.492292
1211.98	0.507245
1213.17	0.52272
1214.35	0.538859
1215.54	0.553525
1216.72	0.57009
1217.91	0.585122
1219.09	0.600957
1220.28	0.615779
1221.46	0.631486
1222.65	0.647182
1223.83	0.661135
1225.02	0.672984
1226.2	0.685438
1227.39	0.697395
1228.57	0.70949
1229.76	0.720278
1230.94	0.729366
1232.13	0.738287
1233.31	0.747827
1234.5	0.753573
1235.68	0.759787
1236.87	0.765447
1238.05	0.76974
1239.24	0.771555
1240.42	0.772568
1241.61	0.774288
1242.79	0.775754
1243.98	0.775406
1245.16	0.774584
1246.35	0.772461
1247.53	0.770259
1248.72	0.766711
1249.9	0.761102
1251.09	0.756163
1252.27	0.750466
1253.46	0.742825
1254.64	0.735207
1255.83	0.727239
1257.01	0.719786
1258.2	0.710799
1259.38	0.700815
1260.57	0.689833
1261.75	0.677039
1262.94	0.66569
1264.12	0.654217
1265.31	0.64181
1266.49	0.629264
1267.68	0.616481
1268.86	0.603122
1270.05	0.591022
1271.23	0.578684
1272.42	0.56516
1273.6	0.55149
1274.79	0.538338
1275.97	0.52674
1277.16	0.513674
1278.34	0.502213
1279.53	0.491254
1280.71	0.47943
1281.9	0.468226
1283.08	0.458358
1284.27	0.448796
1285.45	0.440736
1286.64	0.432908
1287.82	0.425066
1289.01	0.418479
1290.19	0.412072
1291.38	0.405017
1292.56	0.400023
1293.75	0.394643
1294.93	0.390818
1296.12	0.385002
1297.3	0.379539
1298.49	0.374991
1299.67	0.370285
1300.86	0.365595
1302.04	0.360163
1303.23	0.354522
1304.41	0.349003
1305.6	0.342739
1306.78	0.336817
1307.97	0.331347
1309.15	0.325138
1310.34	0.318901
1311.52	0.312401
1312.71	0.306488
1313.89	0.302526
1315.08	0.29804
1316.26	0.293125
1317.45	0.287104
1318.63	0.283084
1319.82	0.278322
1321	0.272907
1322.19	0.268779
1323.37	0.264978
1324.56	0.262095
1325.74	0.259636
1326.93	0.256261
1328.11	0.252642
1329.3	0.251234
1330.48	0.248344
1331.67	0.243715
1332.85	0.240076
1334.04	0.236658
1335.22	0.235048
1336.41	0.230541
1337.59	0.229267
1338.78	0.227285
1339.96	0.224918
1341.15	0.222771
1342.33	0.218887
1343.52	0.217128
1344.7	0.216166
1345.89	0.214293
1347.07	0.211682
1348.26	0.210013
1349.44	0.208729
1350.63	0.207446
1351.81	0.205039
1353	0.203437
1354.18	0.20129
1355.37	0.199706
1356.55	0.197661
1357.74	0.195731
1358.92	0.195094
1360.11	0.193428
1361.29	0.190789
1362.48	0.187191
1363.66	0.186168
1364.85	0.183949
1366.03	0.182507
1367.22	0.180195
1368.4	0.178425
1369.59	0.178268
1370.77	0.177682
1371.96	0.177132
1373.14	0.1759
1374.33	0.174705
1375.51	0.173486
1376.7	0.17276
1377.88	0.170741
1379.07	0.170071
1380.25	0.170109
1381.44	0.169868
1382.62	0.16902
1383.81	0.167626
1384.99	0.166305
1386.18	0.164614
1387.36	0.163485
1388.55	0.163309
1389.73	0.163065
1390.92	0.163773
1392.1	0.16365
1393.29	0.16151
1394.47	0.161795
1395.66	0.163053
1396.84	0.16211
1398.03	0.160938
1399.21	0.159696
1400.4	0.159146
1401.58	0.160134
1402.77	0.161194
1403.95	0.162004
1405.14	0.162163
1406.32	0.161326
1407.51	0.16108
1408.69	0.16178
1409.88	0.163236
1411.06	0.164511
1412.25	0.164667
1413.43	0.16578
1414.62	0.166626
1415.8	0.168546
1416.99	0.171331
1418.17	0.174263
1419.36	0.17745
1420.54	0.180948
1421.73	0.185747
1422.91	0.191097
1424.1	0.197645
1425.28	0.205237
1426.47	0.213402
1427.65	0.223408
1428.84	0.235417
1430.02	0.248705
1431.21	0.262615
1432.39	0.278789
1433.58	0.296939
1434.76	0.31675
1435.95	0.337471
1437.13	0.360078
1438.32	0.382815
1439.5	0.407716
1440.69	0.432566
1441.87	0.458208
1443.06	0.482968
1444.24	0.506908
1445.43	0.529608
1446.61	0.552462
1447.8	0.572379
1448.98	0.591176
1450.17	0.606682
1451.35	0.618288
1452.54	0.626822
1453.72	0.631194
1454.91	0.630827
1456.09	0.627413
1457.28	0.620494
1458.46	0.609839
1459.65	0.595739
1460.83	0.579042
1462.02	0.559682
1463.2	0.535813
1464.39	0.510631
1465.57	0.482934
1466.76	0.454942
1467.94	0.426956
1469.13	0.398593
1470.31	0.369824
1471.5	0.343374
1472.68	0.318248
1473.87	0.294077
1475.05	0.271289
1476.24	0.249624
1477.42	0.23059
1478.61	0.212913
1479.79	0.197915
1480.98	0.184749
1482.16	0.173867
1483.35	0.163803
1484.53	0.155208
1485.72	0.147695
1486.9	0.141387
1488.09	0.136758
1489.27	0.132119
1490.46	0.128205
1491.64	0.126091
1492.83	0.125883
1494.01	0.123832
1495.2	0.123098
1496.38	0.122666
1497.57	0.122723
1498.75	0.124108
1499.94	0.124448
1501.12	0.125037
1502.31	0.126874
1503.49	0.129553
1504.68	0.130981
1505.86	0.132023
1507.05	0.132546
1508.23	0.13366
1509.42	0.134148
1510.6	0.136053
1511.79	0.137627
1512.97	0.137456
1514.16	0.137346
1515.34	0.136816
1516.53	0.136733
1517.71	0.13675
1518.9	0.135964
1520.08	0.134138
1521.27	0.133332
1522.45	0.133042
1523.64	0.132221
1524.82	0.129911
1526.01	0.127006
1527.19	0.125381
1528.38	0.122942
1529.56	0.122656
1530.75	0.122036
1531.93	0.120525
1533.12	0.119191
1534.3	0.117479
1535.49	0.115186
1536.67	0.113609
1537.86	0.111867
1539.04	0.110036
1540.23	0.108904
1541.41	0.107839
1542.6	0.106827
1543.78	0.104769
1544.97	0.103403
1546.15	0.100867
1547.34	0.0983261
1548.52	0.0972361
1549.71	0.0951182
1550.89	0.093132
1552.08	0.0914898
1553.26	0.0893448
1554.45	0.0874349
1555.63	0.085406
1556.82	0.0832746
1558	0.0820426
1559.19	0.0807081
1560.37	0.0794112
1561.56	0.0770012
1562.74	0.0755319
1563.93	0.0740462
1565.11	0.0712471
1566.3	0.0698083
1567.48	0.0684126
1568.67	0.0664548
1569.85	0.0657111
1571.04	0.0646913
1572.22	0.0641211
1573.41	0.063139
1574.59	0.0615528
1575.78	0.0600485
1576.96	0.0584622
1578.15	0.0570775
1579.33	0.0554556
1580.52	0.0539798
1581.7	0.0531167
1582.89	0.0516947
1584.07	0.0505117
1585.26	0.0495533
1586.44	0.0478032
1587.63	0.0466007
1588.81	0.0448261
1590	0.0427471
1591.18	0.0412314
1592.37	0.0395803
1593.55	0.0372425
1594.74	0.0356724
1595.92	0.0345408
1597.11	0.0333305
1598.29	0.0316307
1599.48	0.0295112
1600.66	0.0280917
1601.85	0.0268115
1603.03	0.025237
1604.22	0.0228682
1605.4	0.0203345
1606.59	0.0193869
1607.77	0.0180875
1608.96	0.0166568
1610.14	0.0155366
1611.33	0.0139194
1612.51	0.0124202
1613.7	0.0101714
1614.88	0.00868788
1616.07	0.00712648
1617.25	0.00476169
1618.44	0.00327755
1619.62	0.00202186
1620.81	0.000748758
1621.99	0.000277972
1623.18	-0.000944562
1624.36	-0.00274886
1625.55	-0.00384602
1626.73	-0.00381026
1627.92	-0.00418082
1629.1	-0.00509852
1630.29	-0.00552264
1631.47	-0.00534549
1632.66	-0.0044691
1633.84	-0.003478
1635.03	-0.00361098
1636.21	-0.00211049
1637.4	-0.00138548
1638.58	-0.000614935
1639.77	0.00105396
1640.95	0.00281538
1642.14	0.0037802
1643.32	0.00535892
1644.51	0.00757155
1645.69	0.0101185
1646.88	0.0127278
1648.06	0.0150066
1649.25	0.0174338
1650.43	0.0182245
1651.62	0.0208439
1652.8	0.0228369
1653.99	0.0251667
1655.17	0.0271125
1656.36	0.0283512
1657.54	0.0302489
1658.73	0.0324443
1659.91	0.0344074
1661.1	0.0354391
1662.28	0.0358549
1663.47	0.0360335
1664.65	0.03568
1665.84	0.0354334
1667.02	0.0363571
1668.21	0.0363267
1669.39	0.0372446
1670.58	0.0375588
1671.76	0.0381081
1672.95	0.0380392
1674.13	0.0384671
1675.32	0.0385794
1676.5	0.0384313
1677.69	0.0393947
1678.87	0.0406615
1680.06	0.0416474
1681.24	0.0433087
1682.43	0.0446742
1683.61	0.046024
1684.8	0.0474329
1685.98	0.0473643
1687.17	0.0480405
1688.35	0.0493539
1689.54	0.0513231
1690.72	0.0528295
1691.91	0.0533384
1693.09	0.0535425
1694.28	0.0532621
1695.46	0.0538568
1696.65	0.0543691
1697.83	0.0547315
1699.02	0.0558998
1700.2	0.0558942
1701.39	0.0559575
1702.57	0.0570182
1703.76	0.057233
1704.94	0.0574185
1706.13	0.0572946
1707.31	0.0574465
1708.5	0.0582657
1709.68	0.0590797
1710.87	0.0597416
1712.05	0.0597613
1713.24	0.0600568
1714.42	0.0611735
1715.61	0.0612751
1716.79	0.0612494
1717.98	0.0606183
1719.16	0.0602087
1720.35	0.0600184
1721.53	0.0596176
1722.72	0.0597223
1723.9	0.0587225
1725.09	0.0589081
1726.27	0.0586024
1727.46	0.0586661
1728.64	0.0578386
1729.83	0.0578431
1731.01	0.0558901
1732.2	0.054906
1733.38	0.0551092
1734.57	0.0553761
1735.75	0.0554612
1736.94	0.055135
1738.12	0.0544073
1739.31	0.0535621
1740.49	0.0527571
1741.68	0.0509588
1742.86	0.0497624
1744.05	0.0491358
1745.23	0.048933
1746.42	0.0479442
1747.6	0.0477641
1748.79	0.0475616
1749.97	0.0470275
1751.16	0.0457771
1752.34	0.0436834
1753.53	0.0436551
1754.71	0.0429952
1755.9	0.0425693
1757.08	0.0421298
1758.27	0.0419359
1759.45	0.040785
1760.64	0.0397088
1761.82	0.0383844
1763.01	0.0382432
1764.19	0.0372393
1765.38	0.0348279
1766.56	0.0334646
1767.75	0.0322585
1768.93	0.0317932
1770.12	0.0301314
1771.3	0.0280413
1772.49	0.0269803
1773.67	0.0257901
1774.86	0.0242529
1776.04	0.022764
1777.23	0.0213677
1778.41	0.0198174
1779.6	0.0172515
1780.78	0.0164211
1781.97	0.0154321
1783.15	0.0140307
1784.34	0.0128583
1785.52	0.0107831
1786.71	0.00898413
1787.89	0.00736365
1789.08	0.00522824
1790.26	0.00381435
1791.45	0.00287564
1792.63	0.00146547
1793.82	-4.93012e-005
1795	-0.00163675
