405	0.227661
406.185	0.230808
407.37	0.240303
408.555	0.25272
409.74	0.265466
410.925	0.274389
412.11	0.278795
413.295	0.278699
414.48	0.276177
415.665	0.278333
416.85	0.270106
418.035	0.264017
419.22	0.262585
420.405	0.261654
421.59	0.249395
422.775	0.236622
423.96	0.223898
425.145	0.207679
426.33	0.188666
427.515	0.165982
428.7	0.14071
429.885	0.128661
431.07	0.106811
432.255	0.0842015
433.44	0.0749879
434.625	0.0635161
435.81	0.058924
436.995	0.0571936
438.18	0.0459274
439.365	0.0264783
440.55	0.00795026
441.735	0.00773501
442.92	-0.00251748
444.105	-0.00244031
445.29	-0.0074429
446.475	0.00549782
447.66	0.00708556
448.845	0.0047603
450.03	0.0153386
451.215	0.0344756
452.4	0.0473178
453.585	0.0520247
454.77	0.0722085
455.955	0.0774539
457.14	0.0937212
458.325	0.124894
459.51	0.156594
460.695	0.187976
461.88	0.220848
463.065	0.256106
464.25	0.295436
465.435	0.33786
466.62	0.377201
467.805	0.425416
468.99	0.470562
470.175	0.503783
471.36	0.543833
472.545	0.594598
473.73	0.640453
474.915	0.680548
476.1	0.720032
477.285	0.755042
478.47	0.781136
479.655	0.806314
480.84	0.824432
482.025	0.8436
483.21	0.858414
484.395	0.873166
485.58	0.875833
486.765	0.872769
487.95	0.858638
489.135	0.840788
490.32	0.820492
491.505	0.79522
492.69	0.775798
493.875	0.752526
495.06	0.731887
496.245	0.694649
497.43	0.665582
498.615	0.628931
499.8	0.592192
500.985	0.56122
502.17	0.532395
503.355	0.500989
504.54	0.464529
505.725	0.428479
506.91	0.405972
508.095	0.387249
509.28	0.364603
510.465	0.358643
511.65	0.331999
512.835	0.302529
514.02	0.275593
515.205	0.263185
516.39	0.248121
517.575	0.234755
518.76	0.232811
519.945	0.229336
521.13	0.221657
522.315	0.202377
523.5	0.184528
524.685	0.186832
525.87	0.181274
527.055	0.175714
528.24	0.177181
529.424	0.179191
530.609	0.183804
531.794	0.194803
532.98	0.20421
534.165	0.203476
535.35	0.201242
536.535	0.204329
537.72	0.204792
538.905	0.192929
540.09	0.20249
541.275	0.210941
542.46	0.215252
543.645	0.216005
544.83	0.216055
546.015	0.220237
547.199	0.221063
548.384	0.215746
549.569	0.213306
550.754	0.201493
551.939	0.191503
553.124	0.190934
554.309	0.185978
555.494	0.186214
556.679	0.191021
557.864	0.199329
559.049	0.193653
560.234	0.181501
561.419	0.176118
562.604	0.178479
563.789	0.181906
564.974	0.180119
566.159	0.172232
567.344	0.172242
568.529	0.158258
569.714	0.158528
570.899	0.161228
572.084	0.153687
573.269	0.148339
574.454	0.141365
575.639	0.128886
576.824	0.117693
578.009	0.111446
579.194	0.110386
580.379	0.112119
581.564	0.0988348
582.749	0.0808742
583.934	0.0743186
585.119	0.0697203
586.304	0.0687662
587.489	0.0674417
588.674	0.0651917
589.859	0.0539232
591.044	0.053973
592.229	0.0572544
593.414	0.0576019
594.599	0.0602413
595.784	0.0635825
596.969	0.0684329
598.154	0.0703896
599.339	0.0704587
600.524	0.0670374
601.709	0.0756828
602.894	0.0710672
604.079	0.0702402
605.264	0.0673983
606.449	0.0640666
607.634	0.0622907
608.819	0.0605214
610.004	0.0555644
611.189	0.0501341
612.374	0.0489918
613.559	0.0464755
614.744	0.0376686
615.929	0.0324865
617.114	0.0204467
618.299	0.0141251
619.484	0.023223
620.669	0.02787
621.854	0.0253475
623.039	0.0215425
624.224	0.0213365
625.409	0.0217961
626.594	0.0168117
627.779	0.0129625
628.964	0.0154695
630.149	0.0143776
631.334	0.0129688
632.519	0.00244197
633.704	0.0020081
634.889	-0.000945813
636.074	0.00865547
637.259	0.00975069
638.444	0.00407858
639.629	-0.00758323
640.814	-0.00527684
641.999	-0.00275726
643.184	-0.00491164
644.369	-0.00602076
645.554	-0.00277689
646.739	0.00158117
647.924	0.0022005
649.109	0.0115856
650.294	0.0189377
651.479	0.0320182
652.664	0.0410956
653.849	0.0453561
655.034	0.0476242
656.219	0.0597887
657.404	0.0750228
658.589	0.0920646
659.774	0.108826
660.959	0.122688
662.144	0.137835
663.329	0.156912
664.514	0.173979
665.699	0.185865
666.884	0.193743
668.069	0.187167
669.254	0.187104
670.439	0.192413
671.624	0.201285
672.809	0.202087
673.994	0.204066
675.179	0.19301
676.364	0.185335
677.549	0.177482
678.734	0.165131
679.919	0.154712
681.104	0.142123
682.289	0.124684
683.474	0.109039
684.659	0.0958679
685.844	0.089395
687.029	0.0948516
688.214	0.0835254
689.399	0.0757494
690.584	0.0713596
691.769	0.0630914
692.954	0.0624029
694.139	0.0585955
695.324	0.054053
696.509	0.0481021
697.694	0.0390264
698.879	0.0346394
700.064	0.031757
701.249	0.0312744
702.434	0.0349915
703.619	0.0334739
704.804	0.0253893
705.989	0.0227494
707.174	0.0316266
708.359	0.0364486
709.544	0.0341627
710.729	0.0356416
711.914	0.0273238
713.099	0.0299873
714.284	0.0374335
715.469	0.0362915
716.654	0.0353876
717.839	0.040468
719.024	0.047725
720.209	0.0496551
721.394	0.0500145
722.579	0.0549237
723.764	0.0583821
724.949	0.0523688
726.134	0.0401014
727.319	0.0279159
728.504	0.0197427
729.689	0.0217906
730.874	0.0293982
732.059	0.0349061
733.244	0.0231677
734.429	0.0334071
735.614	0.0384499
736.799	0.0281946
737.984	0.0232225
739.169	0.0282262
740.354	0.0315003
741.539	0.0359041
742.724	0.0391159
743.909	0.0412856
745.094	0.0518473
746.279	0.0655443
747.464	0.069264
748.649	0.0661752
749.834	0.0563488
751.019	0.0568604
752.204	0.0630453
753.389	0.0630957
754.574	0.0570233
755.759	0.059012
756.944	0.0623663
758.129	0.0503992
759.314	0.0425774
760.499	0.0403767
761.684	0.0416218
762.869	0.0389011
764.054	0.0260699
765.239	0.0142944
766.424	0.0112489
767.609	0.0116104
768.794	0.0100868
769.979	0.00716508
771.164	0.00432214
772.349	0.00106849
773.534	0.00449843
774.719	0.00260632
775.904	-0.00271844
777.089	-0.00202032
778.274	0.00638341
779.459	0.00336053
780.644	0.000256768
781.829	-0.00105665
783.014	0.00350425
784.199	0.0113443
785.384	0.0144878
786.569	0.025045
787.754	0.0303574
788.939	0.0346249
790.124	0.0424768
791.309	0.054426
792.494	0.0707142
793.679	0.0841823
794.864	0.0962277
796.049	0.115509
797.234	0.135865
798.419	0.162141
799.604	0.189207
800.789	0.217835
801.974	0.246235
803.159	0.270186
804.344	0.301994
805.529	0.320779
806.714	0.346901
807.899	0.368473
809.084	0.386595
810.269	0.405395
811.454	0.424463
812.638	0.444329
813.823	0.457719
815.008	0.464398
816.193	0.470189
817.378	0.478357
818.563	0.49231
819.748	0.507293
820.934	0.517133
822.119	0.530101
823.304	0.547944
824.489	0.563872
825.674	0.585282
826.859	0.616609
828.044	0.640626
829.229	0.669645
830.413	0.696286
831.598	0.730127
832.783	0.766782
833.968	0.800426
835.153	0.829348
836.338	0.860705
837.523	0.877208
838.708	0.896242
839.893	0.92296
841.078	0.934767
842.263	0.941094
843.448	0.948225
844.633	0.945964
845.818	0.939912
847.003	0.931617
848.188	0.919554
849.373	0.907484
850.558	0.893196
851.743	0.873246
852.928	0.846653
854.113	0.822315
855.298	0.792951
856.483	0.767502
857.668	0.740107
858.853	0.701126
860.038	0.679467
861.223	0.655831
862.408	0.634739
863.593	0.60319
864.778	0.576749
865.963	0.541668
867.148	0.508449
868.333	0.482857
869.518	0.454053
870.703	0.430373
871.888	0.407686
873.073	0.388734
874.258	0.375696
875.443	0.356886
876.628	0.343137
877.813	0.330413
878.998	0.315882
880.183	0.305938
881.368	0.301981
882.553	0.305342
883.738	0.311138
884.923	0.316222
886.108	0.320654
887.293	0.320841
888.478	0.333974
889.663	0.350524
890.848	0.364447
892.033	0.381294
893.218	0.393615
894.403	0.414793
895.588	0.429917
896.773	0.448102
897.958	0.462227
899.143	0.468645
900.328	0.48123
901.513	0.490364
902.698	0.50791
903.883	0.518151
905.068	0.536537
906.253	0.544222
907.438	0.538966
908.623	0.538056
909.808	0.539181
910.993	0.539424
912.178	0.538233
913.363	0.535771
914.548	0.527368
915.733	0.52066
916.918	0.517498
918.103	0.509416
919.288	0.499655
920.473	0.489692
921.658	0.473466
922.843	0.451333
924.028	0.424818
925.213	0.403063
926.398	0.387067
927.583	0.357261
928.768	0.334476
929.953	0.319244
931.138	0.299493
932.323	0.278806
933.508	0.261818
934.693	0.241921
935.878	0.230509
937.063	0.214279
938.248	0.199314
939.433	0.178988
940.618	0.173219
941.803	0.165266
942.988	0.17524
944.173	0.170248
945.358	0.183002
946.543	0.190896
947.728	0.195674
948.913	0.195737
950.098	0.202305
951.283	0.210484
952.468	0.224105
953.653	0.229887
954.838	0.235295
956.023	0.236591
957.208	0.242077
958.393	0.249346
959.578	0.25872
960.763	0.263452
961.948	0.271646
963.133	0.27597
964.318	0.271034
965.503	0.265719
966.688	0.263203
967.873	0.258935
969.058	0.25186
970.243	0.246406
971.428	0.236715
972.613	0.232444
973.798	0.23193
974.983	0.234584
976.168	0.234783
977.353	0.23813
978.538	0.239853
979.723	0.239389
980.908	0.240704
982.093	0.244525
983.278	0.245817
984.463	0.245716
985.648	0.251352
986.833	0.254366
988.018	0.259958
989.203	0.265631
990.388	0.275781
991.573	0.27901
992.758	0.286168
993.943	0.292182
995.128	0.295614
996.313	0.296769
997.498	0.295626
998.683	0.289898
999.868	0.28687
1001.05	0.290564
1002.24	0.294859
1003.42	0.303382
1004.61	0.31925
1005.79	0.331091
1006.98	0.337594
1008.16	0.342556
1009.35	0.349226
1010.53	0.353646
1011.72	0.372976
1012.9	0.389277
1014.09	0.4104
1015.27	0.436643
1016.46	0.459651
1017.64	0.484825
1018.83	0.508992
1020.01	0.530883
1021.2	0.554756
1022.38	0.576752
1023.57	0.593519
1024.75	0.614082
1025.94	0.641351
1027.12	0.672824
1028.31	0.702728
1029.49	0.72371
1030.68	0.745233
1031.86	0.758831
1033.05	0.765025
1034.23	0.775514
1035.42	0.786485
1036.6	0.798807
1037.79	0.813645
1038.97	0.824051
1040.16	0.828591
1041.34	0.83299
1042.53	0.836777
1043.71	0.834223
1044.9	0.826912
1046.08	0.822955
1047.27	0.813616
1048.45	0.797158
1049.64	0.78368
1050.82	0.782575
1052.01	0.772679
1053.19	0.756454
1054.38	0.741324
1055.56	0.725819
1056.75	0.711905
1057.93	0.691514
1059.12	0.678308
1060.3	0.663324
1061.49	0.645124
1062.67	0.632752
1063.86	0.61211
1065.04	0.594689
1066.23	0.577993
1067.41	0.561286
1068.6	0.542238
1069.78	0.52682
1070.97	0.519215
1072.15	0.509666
1073.34	0.504521
1074.52	0.491531
1075.71	0.484518
1076.89	0.470602
1078.08	0.45819
1079.26	0.456514
1080.45	0.446098
1081.63	0.433702
1082.82	0.426179
1084	0.431297
1085.19	0.438011
1086.37	0.437694
1087.56	0.435872
1088.74	0.432415
1089.93	0.424331
1091.11	0.419548
1092.3	0.412652
1093.48	0.413978
1094.67	0.416628
1095.85	0.41355
1097.04	0.408142
1098.22	0.403552
1099.41	0.405499
1100.59	0.396702
1101.78	0.385817
1102.96	0.37222
1104.15	0.361797
1105.33	0.345502
1106.52	0.33173
1107.7	0.32072
1108.89	0.299842
1110.07	0.290893
1111.26	0.266012
1112.44	0.244277
1113.63	0.231662
1114.81	0.218364
1116	0.198779
1117.18	0.170732
1118.37	0.152613
1119.55	0.133217
1120.74	0.119429
1121.92	0.104327
1123.11	0.0935619
1124.29	0.0789507
1125.48	0.0683105
1126.66	0.048233
1127.85	0.0321517
1129.03	0.0270072
1130.22	0.0201331
1131.4	0.00852075
1132.59	0.00142534
1133.77	-0.00051364
1134.96	0.00383959
1136.14	0.00563822
1137.33	0.0115021
1138.51	0.00751372
1139.7	0.00364649
1140.88	0.00195712
1142.07	0.00735223
1143.25	0.0115977
1144.44	0.0202493
1145.62	0.0250011
1146.81	0.0263753
1147.99	0.0211693
1149.18	0.020162
1150.36	0.017086
1151.55	0.0166226
1152.73	0.0192826
1153.92	0.0245714
1155.1	0.0209162
1156.29	0.0184422
1157.47	0.0159438
1158.66	0.0128666
1159.84	0.00445431
1161.03	0.00281217
1162.21	0.00101742
1163.4	-0.00561186
1164.58	-0.0105657
1165.77	-0.00487826
1166.95	-0.00141801
1168.14	-0.00236479
1169.32	-0.00117372
1170.51	-0.00267339
1171.69	-0.00458153
1172.88	-0.00701876
1174.06	-0.00274459
1175.25	0.00357749
1176.43	0.0137836
1177.62	0.0268317
1178.8	0.0360667
1179.99	0.0429541
1181.17	0.050312
1182.36	0.0632014
1183.54	0.0705843
1184.73	0.0785952
1185.91	0.0866966
1187.1	0.0889459
1188.28	0.0932161
1189.47	0.102513
1190.65	0.112234
1191.84	0.123632
1193.02	0.132445
1194.21	0.136503
1195.39	0.139204
1196.58	0.137197
1197.76	0.140523
1198.95	0.144411
1200.13	0.146428
1201.32	0.147806
1202.5	0.14751
1203.69	0.152195
1204.87	0.161636
1206.06	0.162884
1207.24	0.161254
1208.43	0.165362
1209.61	0.165664
1210.8	0.161262
1211.98	0.161629
1213.17	0.165729
1214.35	0.176636
1215.54	0.176783
1216.72	0.179908
1217.91	0.183333
1219.09	0.197455
1220.28	0.204838
1221.46	0.212888
1222.65	0.227149
1223.83	0.241491
1225.02	0.254952
1226.2	0.255604
1227.39	0.264061
1228.57	0.284256
1229.76	0.289868
1230.94	0.305501
1232.13	0.303155
1233.31	0.318246
1234.5	0.328393
1235.68	0.339947
1236.87	0.344036
1238.05	0.353928
1239.24	0.356259
1240.42	0.3505
1241.61	0.354599
1242.79	0.355859
1243.98	0.362936
1245.16	0.36195
1246.35	0.361887
1247.53	0.370399
1248.72	0.369748
1249.9	0.38778
1251.09	0.389809
1252.27	0.39613
1253.46	0.400799
1254.64	0.402545
1255.83	0.401161
1257.01	0.406176
1258.2	0.411217
1259.38	0.407988
1260.57	0.403531
1261.75	0.403147
1262.94	0.401503
1264.12	0.392249
1265.31	0.38464
1266.49	0.374939
1267.68	0.368121
1268.86	0.36131
1270.05	0.35136
1271.23	0.341038
1272.42	0.339696
1273.6	0.336877
1274.79	0.32844
1275.97	0.332827
1277.16	0.330792
1278.34	0.326294
1279.53	0.322266
1280.71	0.329642
1281.9	0.336877
1283.08	0.343208
1284.27	0.348381
1285.45	0.350689
1286.64	0.359665
1287.82	0.35995
1289.01	0.369084
1290.19	0.365652
1291.38	0.376409
1292.56	0.373695
1293.75	0.372913
1294.93	0.376419
1296.12	0.3848
1297.3	0.380249
1298.49	0.375566
1299.67	0.377468
1300.86	0.382865
1302.04	0.379313
1303.23	0.375067
1304.41	0.369212
1305.6	0.366249
1306.78	0.358969
1307.97	0.355068
1309.15	0.353828
1310.34	0.350758
1311.52	0.34731
1312.71	0.344801
1313.89	0.341898
1315.08	0.348255
1316.26	0.348479
1317.45	0.337293
1318.63	0.332031
1319.82	0.333809
1321	0.338709
1322.19	0.334408
1323.37	0.335719
1324.56	0.333796
1325.74	0.327777
1326.93	0.322847
1328.11	0.318914
1329.3	0.32198
1330.48	0.321811
1331.67	0.31724
1332.85	0.30749
1334.04	0.306355
1335.22	0.305792
1336.41	0.30385
1337.59	0.30131
1338.78	0.296325
1339.96	0.295126
1341.15	0.291637
1342.33	0.291443
1343.52	0.292956
1344.7	0.294054
1345.89	0.286782
1347.07	0.279507
1348.26	0.277226
1349.44	0.273751
1350.63	0.271693
1351.81	0.269483
1353	0.264227
1354.18	0.258843
1355.37	0.255513
1356.55	0.256043
1357.74	0.253493
1358.92	0.253628
1360.11	0.249869
1361.29	0.248506
1362.48	0.247576
1363.66	0.250186
1364.85	0.248461
1366.03	0.248601
1367.22	0.253788
1368.4	0.251312
1369.59	0.249511
1370.77	0.25159
1371.96	0.249945
1373.14	0.249348
1374.33	0.246836
1375.51	0.249297
1376.7	0.251357
1377.88	0.248376
1379.07	0.241943
1380.25	0.240289
1381.44	0.240562
1382.62	0.241101
1383.81	0.236688
1384.99	0.229947
1386.18	0.233834
1387.36	0.233157
1388.55	0.234317
1389.73	0.234212
1390.92	0.235534
1392.1	0.238273
1393.29	0.239636
1394.47	0.237653
1395.66	0.234755
1396.84	0.249
1398.03	0.256451
1399.21	0.260789
1400.4	0.259846
1401.58	0.261312
1402.77	0.256914
1403.95	0.249902
1405.14	0.251206
1406.32	0.24924
1407.51	0.246477
1408.69	0.242682
1409.88	0.23758
1411.06	0.237463
1412.25	0.241979
1413.43	0.235743
1414.62	0.226973
1415.8	0.22605
1416.99	0.231661
1418.17	0.233496
1419.36	0.245756
1420.54	0.254316
1421.73	0.255983
1422.91	0.266204
1424.1	0.278026
1425.28	0.289861
1426.47	0.296712
1427.65	0.300228
1428.84	0.310054
1430.02	0.320996
1431.21	0.336581
1432.39	0.353446
1433.58	0.368981
1434.76	0.389432
1435.95	0.40814
1437.13	0.428262
1438.32	0.448551
1439.5	0.460932
1440.69	0.480388
1441.87	0.50005
1443.06	0.522456
1444.24	0.541423
1445.43	0.558961
1446.61	0.568818
1447.8	0.583336
1448.98	0.587786
1450.17	0.593308
1451.35	0.602817
1452.54	0.607234
1453.72	0.612093
1454.91	0.61556
1456.09	0.614689
1457.28	0.608198
1458.46	0.594692
1459.65	0.574787
1460.83	0.560161
1462.02	0.546511
1463.2	0.53235
1464.39	0.518646
1465.57	0.500788
1466.76	0.480709
1467.94	0.453427
1469.13	0.429259
1470.31	0.39695
1471.5	0.360061
1472.68	0.341419
1473.87	0.316928
1475.05	0.296585
1476.24	0.2788
1477.42	0.262471
1478.61	0.238187
1479.79	0.220136
1480.98	0.199602
1482.16	0.173245
1483.35	0.153367
1484.53	0.132278
1485.72	0.117949
1486.9	0.104326
1488.09	0.0975785
1489.27	0.0819845
1490.46	0.0740141
1491.64	0.0669852
1492.83	0.0626867
1494.01	0.0640518
1495.2	0.0619387
1496.38	0.0627394
1497.57	0.0619955
1498.75	0.0653637
1499.94	0.0671108
1501.12	0.0681457
1502.31	0.0679963
1503.49	0.0688677
1504.68	0.0716036
1505.86	0.0745838
1507.05	0.0754047
1508.23	0.0670233
1509.42	0.0638476
1510.6	0.0565566
1511.79	0.051469
1512.97	0.0432454
1514.16	0.0424509
1515.34	0.0414793
1516.53	0.0434697
1517.71	0.0436359
1518.9	0.0451586
1520.08	0.0377171
1521.27	0.0342566
1522.45	0.0322592
1523.64	0.0273816
1524.82	0.0285727
1526.01	0.0300269
1527.19	0.0262598
1528.38	0.0236351
1529.56	0.0256862
1530.75	0.0240087
1531.93	0.0248719
1533.12	0.0236249
1534.3	0.0216963
1535.49	0.0203711
1536.67	0.0202627
1537.86	0.0222289
1539.04	0.0179232
1540.23	0.0156186
1541.41	0.0151441
1542.6	0.0127596
1543.78	0.0146925
1544.97	0.0170372
1546.15	0.0211214
1547.34	0.0162128
1548.52	0.0146587
1549.71	0.0141585
1550.89	0.00963141
1552.08	0.00898725
1553.26	0.00735625
1554.45	0.00496122
1555.63	0.00170563
1556.82	0.00268375
1558	0.00531234
1559.19	0.00549639
1560.37	0.00120909
1561.56	0.000808498
1562.74	0.00086759
1563.93	-0.000286964
1565.11	-0.00521362
1566.3	-0.0043807
1567.48	0.000189577
1568.67	-0.00125717
1569.85	0.00343305
1571.04	0.00712679
1572.22	0.00956963
1573.41	0.0123847
1574.59	0.0119528
1575.78	0.0108084
1576.96	0.014052
1578.15	0.0153952
1579.33	0.0146175
1580.52	0.020941
1581.7	0.0291506
1582.89	0.0289798
1584.07	0.0336416
1585.26	0.0377839
1586.44	0.0383004
1587.63	0.0423344
1588.81	0.049659
1590	0.055055
1591.18	0.0614316
1592.37	0.0688009
1593.55	0.071089
1594.74	0.0761213
1595.92	0.0789951
1597.11	0.0798506
1598.29	0.0791879
1599.48	0.0835248
1600.66	0.0826301
1601.85	0.0825946
1603.03	0.082544
1604.22	0.0835148
1605.4	0.0833202
1606.59	0.0827324
1607.77	0.0792667
1608.96	0.0741783
1610.14	0.077269
1611.33	0.080425
1612.51	0.0845574
1613.7	0.0825883
1614.88	0.083972
1616.07	0.0909828
1617.25	0.0969479
1618.44	0.103422
1619.62	0.111866
1620.81	0.116425
1621.99	0.117303
1623.18	0.116225
1624.36	0.11877
1625.55	0.122928
1626.73	0.118724
1627.92	0.12532
1629.1	0.132114
1630.29	0.132992
1631.47	0.126936
1632.66	0.123202
1633.84	0.125041
1635.03	0.122555
1636.21	0.1273
1637.4	0.133621
1638.58	0.142252
1639.77	0.155644
1640.95	0.166062
1642.14	0.179446
1643.32	0.185864
1644.51	0.181731
1645.69	0.189445
1646.88	0.199675
1648.06	0.210543
1649.25	0.218981
1650.43	0.217829
1651.62	0.226706
1652.8	0.222887
1653.99	0.220649
1655.17	0.219447
1656.36	0.216501
1657.54	0.212989
1658.73	0.211243
1659.91	0.213382
1661.1	0.218859
1662.28	0.216003
1663.47	0.214845
1664.65	0.214596
1665.84	0.213658
1667.02	0.216035
1668.21	0.212839
1669.39	0.214198
1670.58	0.219255
1671.76	0.214812
1672.95	0.211522
1674.13	0.212604
1675.32	0.210364
1676.5	0.205467
1677.69	0.201335
1678.87	0.198024
1680.06	0.194488
1681.24	0.19276
1682.43	0.186803
1683.61	0.185083
1684.8	0.188456
1685.98	0.188689
1687.17	0.178744
1688.35	0.175037
1689.54	0.170929
1690.72	0.166462
1691.91	0.16011
1693.09	0.157831
1694.28	0.156145
1695.46	0.157344
1696.65	0.153446
1697.83	0.14839
1699.02	0.14825
1700.2	0.140218
1701.39	0.132983
1702.57	0.127822
1703.76	0.132745
1704.94	0.135965
1706.13	0.136207
1707.31	0.133802
1708.5	0.139369
1709.68	0.140116
1710.87	0.137799
1712.05	0.133059
1713.24	0.132424
1714.42	0.129308
1715.61	0.124821
1716.79	0.125478
1717.98	0.123089
1719.16	0.122916
1720.35	0.120001
1721.53	0.121043
1722.72	0.122914
1723.9	0.119952
1725.09	0.111455
1726.27	0.108647
1727.46	0.111927
1728.64	0.112223
1729.83	0.115926
1731.01	0.118318
1732.2	0.123498
1733.38	0.122266
1734.57	0.121905
1735.75	0.119883
1736.94	0.121154
1738.12	0.120648
1739.31	0.119134
1740.49	0.124361
1741.68	0.12529
1742.86	0.123686
1744.05	0.123585
1745.23	0.125403
1746.42	0.12549
1747.6	0.12057
1748.79	0.116942
1749.97	0.119446
1751.16	0.118278
1752.34	0.119368
1753.53	0.114677
1754.71	0.0996551
1755.9	0.0981826
1757.08	0.0871438
1758.27	0.0840153
1759.45	0.0822306
1760.64	0.0775628
1761.82	0.071105
1763.01	0.0665906
1764.19	0.0657575
1765.38	0.062623
1766.56	0.0548594
1767.75	0.0482309
1768.93	0.043919
1770.12	0.0417855
1771.3	0.0449859
1772.49	0.0415068
1773.67	0.0426511
1774.86	0.0407144
1776.04	0.0394487
1777.23	0.0374328
1778.41	0.0355465
1779.6	0.0346014
1780.78	0.0303838
1781.97	0.0263601
1783.15	0.0262937
1784.34	0.0308456
1785.52	0.0273038
1786.71	0.0221734
1787.89	0.0193767
1789.08	0.0174892
1790.26	0.0159751
1791.45	0.0138764
1792.63	0.00301623
1793.82	-0.00129103
1795	-0.00461529
