405	0.121266
406.185	0.16213
407.37	0.20722
408.555	0.239108
409.74	0.262499
410.925	0.282744
412.11	0.300951
413.295	0.312775
414.48	0.316087
415.665	0.319026
416.85	0.316341
418.035	0.317666
419.22	0.328925
420.405	0.312078
421.59	0.294992
422.775	0.272732
423.96	0.247466
425.145	0.222817
426.33	0.203951
427.515	0.195597
428.7	0.159129
429.885	0.144912
431.07	0.121357
432.255	0.1026
433.44	0.0880372
434.625	0.0664205
435.81	0.0519393
436.995	0.0475675
438.18	0.0377922
439.365	0.0190949
440.55	0.0129206
441.735	0.0112369
442.92	-0.00349335
444.105	0.00197544
445.29	0.00288267
446.475	-0.00283126
447.66	0.00770193
448.845	0.012823
450.03	0.00345352
451.215	-0.00315137
452.4	0.00418404
453.585	0.025528
454.77	0.0394501
455.955	0.0434844
457.14	0.0439033
458.325	0.0693299
459.51	0.0941032
460.695	0.124177
461.88	0.166726
463.065	0.204706
464.25	0.231053
465.435	0.263912
466.62	0.298601
467.805	0.338088
468.99	0.392714
470.175	0.45745
471.36	0.507381
472.545	0.54597
473.73	0.593912
474.915	0.644023
476.1	0.691225
477.285	0.739137
478.47	0.787753
479.655	0.834404
480.84	0.86461
482.025	0.881428
483.21	0.895613
484.395	0.913323
485.58	0.93495
486.765	0.947817
487.95	0.948225
489.135	0.942499
490.32	0.933094
491.505	0.918398
492.69	0.898396
493.875	0.866516
495.06	0.843803
496.245	0.827589
497.43	0.787957
498.615	0.748806
499.8	0.70657
500.985	0.674655
502.17	0.655117
503.355	0.632
504.54	0.595399
505.725	0.555274
506.91	0.524344
508.095	0.501558
509.28	0.470379
510.465	0.44786
511.65	0.442159
512.835	0.433852
514.02	0.421842
515.205	0.408343
516.39	0.385482
517.575	0.358646
518.76	0.341942
519.945	0.332473
521.13	0.315722
522.315	0.302727
523.5	0.296095
524.685	0.291188
525.87	0.286938
527.055	0.2806
528.24	0.277872
529.425	0.282817
530.61	0.278376
531.795	0.271255
532.98	0.27591
534.165	0.283162
535.35	0.285295
536.535	0.298222
537.72	0.311523
538.905	0.311715
540.09	0.318821
541.275	0.320484
542.46	0.312386
543.644	0.311143
544.829	0.313549
546.014	0.314352
547.199	0.313144
548.384	0.307976
549.569	0.298985
550.754	0.293619
551.939	0.284698
553.124	0.268417
554.309	0.258839
555.494	0.261706
556.679	0.255379
557.865	0.246935
559.049	0.240443
560.234	0.235925
561.419	0.237246
562.604	0.241656
563.789	0.24142
564.974	0.236178
566.159	0.226835
567.344	0.225112
568.529	0.222858
569.714	0.222982
570.899	0.223152
572.084	0.217034
573.269	0.223414
574.454	0.22366
575.639	0.222857
576.824	0.221891
578.009	0.220303
579.194	0.222224
580.379	0.219553
581.564	0.204088
582.749	0.190669
583.934	0.182132
585.119	0.187132
586.304	0.179828
587.489	0.175677
588.674	0.168371
589.859	0.155847
591.044	0.152232
592.229	0.156017
593.414	0.155442
594.599	0.147259
595.784	0.142051
596.969	0.144892
598.154	0.132218
599.339	0.127176
600.524	0.136032
601.709	0.132414
602.894	0.131813
604.079	0.127627
605.264	0.130825
606.449	0.130437
607.634	0.128874
608.819	0.137027
610.004	0.142461
611.189	0.131148
612.374	0.118571
613.559	0.119414
614.744	0.116124
615.929	0.0936745
617.114	0.0950634
618.299	0.0688133
619.484	0.0630571
620.669	0.0581537
621.854	0.0576132
623.039	0.0538596
624.224	0.0450673
625.409	0.0377949
626.594	0.0347601
627.779	0.0294548
628.964	0.0187484
630.149	0.00991983
631.334	0.00660831
632.519	0.010562
633.704	0.00685312
634.889	0.0245679
636.074	0.0117188
637.259	0.0237615
638.444	0.0213542
639.629	0.0301799
640.814	0.0368343
641.999	0.0395025
643.184	0.0445119
644.369	0.0479614
645.554	0.0460273
646.739	0.0470118
647.924	0.0545231
649.109	0.0560657
650.294	0.0597491
651.479	0.0565353
652.664	0.0732495
653.849	0.0742473
655.034	0.0858671
656.219	0.0982128
657.404	0.113708
658.589	0.126043
659.774	0.132316
660.959	0.139313
662.144	0.149435
663.329	0.158081
664.514	0.167389
665.699	0.175719
666.884	0.170873
668.069	0.178764
669.254	0.172426
670.439	0.172161
671.624	0.163609
672.809	0.168279
673.994	0.173562
675.179	0.169105
676.364	0.164904
677.549	0.158252
678.734	0.145212
679.919	0.133528
681.104	0.123261
682.289	0.113788
683.474	0.104864
684.659	0.096099
685.844	0.0996689
687.029	0.099581
688.214	0.103223
689.399	0.095187
690.584	0.0872829
691.769	0.0814287
692.954	0.0762612
694.139	0.0814377
695.324	0.0780484
696.509	0.0762765
697.694	0.0767491
698.879	0.0806565
700.064	0.080963
701.249	0.0801877
702.434	0.0866268
703.619	0.0934513
704.804	0.0879651
705.989	0.0729915
707.174	0.0731599
708.359	0.0874493
709.544	0.0913601
710.729	0.0928751
711.914	0.0880571
713.099	0.081051
714.284	0.0801195
715.469	0.0650748
716.654	0.0731585
717.839	0.0718304
719.024	0.0741898
720.209	0.0749525
721.394	0.0686619
722.579	0.0694407
723.764	0.084876
724.949	0.100904
726.134	0.0982247
727.319	0.0949596
728.504	0.0950743
729.689	0.098047
730.874	0.104295
732.059	0.103287
733.244	0.107034
734.429	0.122812
735.614	0.115992
736.799	0.113599
737.984	0.114481
739.169	0.120857
740.354	0.128107
741.539	0.122473
742.724	0.11465
743.909	0.119525
745.094	0.1244
746.279	0.120328
747.464	0.119534
748.649	0.117428
749.834	0.114295
751.019	0.117918
752.204	0.115599
753.389	0.109781
754.574	0.0997591
755.759	0.0964785
756.944	0.0804908
758.129	0.0763185
759.314	0.0717431
760.499	0.0684909
761.684	0.0575192
762.869	0.0481464
764.054	0.0403793
765.239	0.0323604
766.424	0.0285571
767.609	0.0247079
768.794	0.0160847
769.979	0.00961037
771.164	0.00792346
772.349	0.00746299
773.534	0.00429939
774.719	0.00607959
775.904	0.0091018
777.089	0.0117511
778.274	0.002696
779.459	0.00456543
780.644	-0.000220806
781.829	-0.00284854
783.014	0.00528985
784.199	0.0129296
785.384	0.015208
786.569	0.0151064
787.754	0.0103743
788.939	0.00817185
790.124	0.0133609
791.309	0.0234643
792.494	0.039046
793.679	0.0541104
794.864	0.0571531
796.049	0.0603189
797.234	0.0773669
798.419	0.0868596
799.604	0.103668
800.789	0.116278
801.974	0.149788
803.159	0.178064
804.344	0.205617
805.529	0.235746
806.714	0.271793
807.899	0.292264
809.084	0.315802
810.269	0.337447
811.454	0.34034
812.639	0.34987
813.824	0.364818
815.009	0.378455
816.194	0.392737
817.379	0.4061
818.564	0.41585
819.748	0.411887
820.933	0.395062
822.118	0.387536
823.303	0.394359
824.488	0.410785
825.673	0.41969
826.858	0.438563
828.043	0.454809
829.228	0.487431
830.413	0.531773
831.598	0.569661
832.784	0.609143
833.969	0.639563
835.154	0.675663
836.339	0.716246
837.523	0.760369
838.708	0.80595
839.893	0.843412
841.078	0.870376
842.263	0.886085
843.448	0.901382
844.633	0.916235
845.818	0.917612
847.003	0.911362
848.188	0.904007
849.373	0.889994
850.558	0.871107
851.743	0.850772
852.928	0.833553
854.113	0.819859
855.298	0.795338
856.483	0.766581
857.668	0.737464
858.853	0.708119
860.038	0.672904
861.223	0.640952
862.408	0.608773
863.593	0.574255
864.778	0.548998
865.963	0.513821
867.148	0.475542
868.333	0.447652
869.518	0.426591
870.703	0.397597
871.888	0.368686
873.073	0.343203
874.258	0.321903
875.443	0.298943
876.628	0.281678
877.813	0.270903
878.998	0.265693
880.183	0.263981
881.368	0.258894
882.553	0.258939
883.738	0.270048
884.923	0.281723
886.108	0.294911
887.293	0.306464
888.478	0.320436
889.663	0.329604
890.848	0.335227
892.033	0.353939
893.218	0.359241
894.403	0.382942
895.588	0.404543
896.773	0.428948
897.958	0.425235
899.143	0.447401
900.328	0.477644
901.513	0.484864
902.698	0.49266
903.883	0.500349
905.068	0.51516
906.253	0.51596
907.438	0.526269
908.623	0.535492
909.808	0.53681
910.993	0.545476
912.178	0.546627
913.363	0.543125
914.548	0.532598
915.733	0.527985
916.918	0.521199
918.103	0.501407
919.288	0.477813
920.473	0.457316
921.658	0.441653
922.843	0.419565
924.028	0.398641
925.213	0.383553
926.398	0.357008
927.583	0.336644
928.768	0.308748
929.953	0.282443
931.138	0.256713
932.323	0.244513
933.508	0.236187
934.693	0.212347
935.878	0.192109
937.063	0.187771
938.248	0.18725
939.433	0.175564
940.618	0.166463
941.803	0.163837
942.988	0.151969
944.173	0.154513
945.358	0.153715
946.543	0.147495
947.728	0.138486
948.913	0.150054
950.098	0.144454
951.283	0.13832
952.468	0.147287
953.653	0.158263
954.838	0.153638
956.023	0.148612
957.208	0.148553
958.393	0.151401
959.578	0.150315
960.763	0.148462
961.948	0.148689
963.133	0.149459
964.318	0.151152
965.503	0.161583
966.688	0.172533
967.873	0.17241
969.058	0.17164
970.243	0.16823
971.428	0.163011
972.613	0.165654
973.798	0.167288
974.983	0.167496
976.168	0.164503
977.353	0.164165
978.538	0.169139
979.723	0.163829
980.908	0.156224
982.093	0.154522
983.278	0.16372
984.463	0.172078
985.648	0.170755
986.833	0.176815
988.018	0.172701
989.203	0.184833
990.388	0.185089
991.573	0.187632
992.758	0.198922
993.943	0.203543
995.128	0.21125
996.313	0.206954
997.498	0.219986
998.683	0.232541
999.868	0.253977
1001.05	0.263476
1002.24	0.254092
1003.42	0.255426
1004.61	0.264455
1005.79	0.276893
1006.98	0.285057
1008.16	0.287961
1009.35	0.30432
1010.53	0.313504
1011.72	0.335874
1012.9	0.359702
1014.09	0.382703
1015.27	0.399487
1016.46	0.419127
1017.64	0.430923
1018.83	0.450456
1020.01	0.473738
1021.2	0.504831
1022.38	0.527223
1023.57	0.546356
1024.75	0.570946
1025.94	0.603733
1027.12	0.635768
1028.31	0.667871
1029.49	0.686174
1030.68	0.697257
1031.86	0.716772
1033.05	0.737885
1034.23	0.759694
1035.42	0.781964
1036.6	0.795966
1037.79	0.797822
1038.97	0.791507
1040.16	0.797601
1041.34	0.81259
1042.53	0.815177
1043.71	0.815089
1044.9	0.810229
1046.08	0.802242
1047.27	0.796527
1048.45	0.792483
1049.64	0.77803
1050.82	0.763675
1052.01	0.749743
1053.19	0.72464
1054.38	0.705868
1055.56	0.699404
1056.75	0.694564
1057.93	0.679574
1059.12	0.652613
1060.3	0.63504
1061.49	0.615625
1062.67	0.594642
1063.86	0.574737
1065.04	0.5604
1066.23	0.536032
1067.41	0.519589
1068.6	0.50718
1069.78	0.482126
1070.97	0.474664
1072.15	0.466919
1073.34	0.449007
1074.52	0.439393
1075.71	0.43296
1076.89	0.430108
1078.08	0.426471
1079.26	0.41326
1080.45	0.399606
1081.63	0.393345
1082.82	0.381786
1084	0.382285
1085.19	0.383195
1086.37	0.374357
1087.56	0.387012
1088.74	0.386233
1089.93	0.38904
1091.11	0.394055
1092.3	0.387987
1093.48	0.377571
1094.67	0.375852
1095.85	0.371323
1097.04	0.369377
1098.22	0.376446
1099.41	0.370559
1100.59	0.365564
1101.78	0.361524
1102.96	0.356899
1104.15	0.351235
1105.33	0.328829
1106.52	0.310546
1107.7	0.284551
1108.89	0.268428
1110.07	0.259687
1111.26	0.256078
1112.44	0.234541
1113.63	0.221865
1114.81	0.204636
1116	0.183305
1117.18	0.172008
1118.37	0.147739
1119.55	0.131397
1120.74	0.105913
1121.92	0.0942788
1123.11	0.0905772
1124.29	0.0867423
1125.48	0.0826193
1126.66	0.0725168
1127.85	0.0721281
1129.03	0.0663035
1130.22	0.0621781
1131.4	0.0534648
1132.59	0.0571471
1133.77	0.053476
1134.96	0.0488224
1136.14	0.0537201
1137.33	0.0495381
1138.51	0.0551243
1139.7	0.0557471
1140.88	0.0499592
1142.07	0.0532404
1143.25	0.0487353
1144.44	0.0394935
1145.62	0.0351716
1146.81	0.0225464
1147.99	0.0154089
1149.18	0.0189551
1150.36	0.0160282
1151.55	0.0202902
1152.73	0.0196096
1153.92	0.0148178
1155.1	0.0183258
1156.29	0.0190095
1157.47	0.0132759
1158.66	0.00816293
1159.84	0.00270479
1161.03	0.0100781
1162.21	0.0173117
1163.4	0.0106078
1164.58	0.0100682
1165.77	0.0126072
1166.95	0.00405924
1168.14	0.00285816
1169.32	-0.00329364
1170.51	-0.0105657
1171.69	-0.00118055
1172.88	0.00886172
1174.06	0.006954
1175.25	0.0078576
1176.43	0.0186914
1177.62	0.0231999
1178.8	0.0227378
1179.99	0.0279644
1181.17	0.0382416
1182.36	0.0462937
1183.54	0.0510815
1184.73	0.0597758
1185.91	0.0670724
1187.1	0.0774852
1188.28	0.0864912
1189.47	0.0825832
1190.65	0.0765033
1191.84	0.0901405
1193.02	0.103972
1194.21	0.100306
1195.39	0.096083
1196.58	0.09717
1197.76	0.0980642
1198.95	0.0937578
1200.13	0.0941673
1201.32	0.0947838
1202.5	0.0885253
1203.69	0.0846041
1204.87	0.0873067
1206.06	0.0876547
1207.24	0.0955945
1208.43	0.105941
1209.61	0.101817
1210.8	0.106796
1211.98	0.115645
1213.17	0.121608
1214.35	0.123744
1215.54	0.137082
1216.72	0.155234
1217.91	0.165585
1219.09	0.184342
1220.28	0.200176
1221.46	0.218382
1222.65	0.224079
1223.83	0.236859
1225.02	0.247654
1226.2	0.259431
1227.39	0.281242
1228.57	0.289615
1229.76	0.302022
1230.94	0.31805
1232.13	0.335639
1233.31	0.342941
1234.5	0.355905
1235.68	0.364179
1236.87	0.365713
1238.05	0.374188
1239.24	0.373121
1240.42	0.390227
1241.61	0.389805
1242.79	0.38785
1243.98	0.389294
1245.16	0.383247
1246.35	0.389888
1247.53	0.406888
1248.72	0.412001
1249.9	0.410184
1251.09	0.404225
1252.27	0.398591
1253.46	0.399882
1254.64	0.401463
1255.83	0.407641
1257.01	0.408784
1258.2	0.415718
1259.38	0.430295
1260.57	0.431587
1261.75	0.429925
1262.94	0.425739
1264.12	0.415226
1265.31	0.406461
1266.49	0.40352
1267.68	0.404171
1268.86	0.406803
1270.05	0.409482
1271.23	0.412013
1272.42	0.403946
1273.6	0.392752
1274.79	0.388312
1275.97	0.377196
1277.16	0.370944
1278.34	0.370272
1279.53	0.367772
1280.71	0.365037
1281.9	0.361772
1283.08	0.356592
1284.27	0.354955
1285.45	0.350143
1286.64	0.353669
1287.82	0.343519
1289.01	0.346323
1290.19	0.361168
1291.38	0.362532
1292.56	0.364786
1293.75	0.368379
1294.93	0.369587
1296.12	0.371491
1297.3	0.380028
1298.49	0.384743
1299.67	0.396562
1300.86	0.404305
1302.04	0.407544
1303.23	0.409761
1304.41	0.408202
1305.6	0.40927
1306.78	0.402251
1307.97	0.401035
1309.15	0.403302
1310.34	0.40081
1311.52	0.400252
1312.71	0.402491
1313.89	0.406143
1315.08	0.408417
1316.26	0.398981
1317.45	0.389168
1318.63	0.382977
1319.82	0.36938
1321	0.363304
1322.19	0.361223
1323.37	0.363628
1324.56	0.361841
1325.74	0.360841
1326.93	0.364105
1328.11	0.359062
1329.3	0.358274
1330.48	0.350144
1331.67	0.347368
1332.85	0.339229
1334.04	0.351122
1335.22	0.348649
1336.41	0.346786
1337.59	0.349493
1338.78	0.350509
1339.96	0.356705
1341.15	0.350358
1342.33	0.342113
1343.52	0.337345
1344.7	0.334915
1345.89	0.330374
1347.07	0.325752
1348.26	0.318236
1349.44	0.314838
1350.63	0.310659
1351.81	0.307148
1353	0.312403
1354.18	0.314405
1355.37	0.312153
1356.55	0.303979
1357.74	0.296557
1358.92	0.30461
1360.11	0.309345
1361.29	0.303521
1362.48	0.303416
1363.66	0.313776
1364.85	0.310453
1366.03	0.310764
1367.22	0.308473
1368.4	0.311406
1369.59	0.3047
1370.77	0.298389
1371.96	0.292844
1373.14	0.289808
1374.33	0.287111
1375.51	0.289831
1376.7	0.284768
1377.88	0.283087
1379.07	0.282962
1380.25	0.277729
1381.44	0.271772
1382.62	0.270662
1383.81	0.268858
1384.99	0.265112
1386.18	0.267333
1387.36	0.271284
1388.55	0.282393
1389.73	0.28421
1390.92	0.288928
1392.1	0.293056
1393.29	0.289622
1394.47	0.282862
1395.66	0.276283
1396.84	0.271082
1398.03	0.273223
1399.21	0.268487
1400.4	0.272371
1401.58	0.276023
1402.77	0.268283
1403.95	0.265277
1405.14	0.260477
1406.32	0.256264
1407.51	0.253205
1408.69	0.244335
1409.88	0.236086
1411.06	0.237282
1412.25	0.23786
1413.43	0.239197
1414.62	0.239509
1415.8	0.246351
1416.99	0.249242
1418.17	0.244366
1419.36	0.251797
1420.54	0.253491
1421.73	0.256177
1422.91	0.255852
1424.1	0.264491
1425.28	0.267601
1426.47	0.27837
1427.65	0.286186
1428.84	0.295503
1430.02	0.313374
1431.21	0.33103
1432.39	0.345795
1433.58	0.356766
1434.76	0.369876
1435.95	0.383957
1437.13	0.394682
1438.32	0.410465
1439.5	0.431341
1440.69	0.44631
1441.87	0.468743
1443.06	0.480879
1444.24	0.497915
1445.43	0.515869
1446.61	0.531084
1447.8	0.537039
1448.98	0.545198
1450.17	0.558306
1451.35	0.572666
1452.54	0.579902
1453.72	0.589377
1454.91	0.588275
1456.09	0.584788
1457.28	0.582379
1458.46	0.572048
1459.65	0.56798
1460.83	0.564777
1462.02	0.553974
1463.2	0.540013
1464.39	0.522608
1465.57	0.507425
1466.76	0.480876
1467.94	0.457123
1469.13	0.433432
1470.31	0.400214
1471.5	0.377358
1472.68	0.354591
1473.87	0.328119
1475.05	0.305869
1476.24	0.288626
1477.42	0.265562
1478.61	0.239401
1479.79	0.217803
1480.98	0.197986
1482.16	0.179606
1483.35	0.169406
1484.53	0.15379
1485.72	0.134863
1486.9	0.131735
1488.09	0.125524
1489.27	0.124068
1490.46	0.124063
1491.64	0.120337
1492.83	0.110447
1494.01	0.097895
1495.2	0.0961336
1496.38	0.0930208
1497.57	0.0827182
1498.75	0.0748728
1499.94	0.0658682
1501.12	0.0630212
1502.31	0.0606821
1503.49	0.0533155
1504.68	0.0500238
1505.86	0.042565
1507.05	0.036126
1508.23	0.038934
1509.42	0.0394867
1510.6	0.0391786
1511.79	0.0403213
1512.97	0.0313194
1514.16	0.0318012
1515.34	0.0293368
1516.53	0.0265296
1517.71	0.0243197
1518.9	0.0259219
1520.08	0.0296812
1521.27	0.0290027
1522.45	0.0302701
1523.64	0.022606
1524.82	0.0182608
1526.01	0.016567
1527.19	0.0153422
1528.38	0.014037
1529.56	0.0210452
1530.75	0.0247084
1531.93	0.0331445
1533.12	0.0370925
1534.3	0.039462
1535.49	0.0385104
1536.67	0.0374497
1537.86	0.0347851
1539.04	0.0314369
1540.23	0.0326632
1541.41	0.0294226
1542.6	0.0239498
1543.78	0.021896
1544.97	0.0204793
1546.15	0.0212668
1547.34	0.0140835
1548.52	0.0121289
1549.71	0.0136199
1550.89	0.00883967
1552.08	0.00612384
1553.26	0.00642405
1554.45	0.00559009
1555.63	0.00643941
1556.82	0.00811918
1558	0.0071187
1559.19	0.00613129
1560.37	0.00730386
1561.56	0.00808199
1562.74	0.00502919
1563.93	0.00278526
1565.11	0.00415606
1566.3	-0.00111366
1567.48	0.00398521
1568.67	0.00503507
1569.85	0.00549764
1571.04	0.00756175
1572.22	0.00568489
1573.41	0.00624122
1574.59	0.0100598
1575.78	0.0136678
1576.96	0.0126487
1578.15	0.0116493
1579.33	0.0113316
1580.52	0.0179155
1581.7	0.0217099
1582.89	0.0238559
1584.07	0.0231635
1585.26	0.0266528
1586.44	0.0299327
1587.63	0.0330203
1588.81	0.0340954
1590	0.0359949
1591.18	0.0373393
1592.37	0.0399057
1593.55	0.047062
1594.74	0.0496414
1595.92	0.0516359
1597.11	0.0511064
1598.29	0.0501108
1599.48	0.0517771
1600.66	0.0555294
1601.85	0.0567482
1603.03	0.05857
1604.22	0.0633489
1605.4	0.0705307
1606.59	0.0712529
1607.77	0.0694885
1608.96	0.0715718
1610.14	0.0727513
1611.33	0.0719995
1612.51	0.0759234
1613.7	0.0792953
1614.88	0.0835419
1616.07	0.0854984
1617.25	0.0865285
1618.44	0.0875465
1619.62	0.0854446
1620.81	0.0827808
1621.99	0.0828477
1623.18	0.0859211
1624.36	0.0958751
1625.55	0.102402
1626.73	0.100964
1627.92	0.103771
1629.1	0.111173
1630.29	0.123458
1631.47	0.121735
1632.66	0.119918
1633.84	0.126443
1635.03	0.131488
1636.21	0.136789
1637.4	0.142652
1638.58	0.145629
1639.77	0.143796
1640.95	0.140739
1642.14	0.140389
1643.32	0.145961
1644.51	0.146103
1645.69	0.14431
1646.88	0.141907
1648.06	0.141693
1649.25	0.147719
1650.43	0.148763
1651.62	0.152729
1652.8	0.161228
1653.99	0.16164
1655.17	0.162603
1656.36	0.167663
1657.54	0.167652
1658.73	0.170874
1659.91	0.175722
1661.1	0.180347
1662.28	0.17861
1663.47	0.179095
1664.65	0.186997
1665.84	0.185672
1667.02	0.185545
1668.21	0.182164
1669.39	0.178386
1670.58	0.172102
1671.76	0.178251
1672.95	0.179929
1674.13	0.18108
1675.32	0.17805
1676.5	0.176705
1677.69	0.1746
1678.87	0.18042
1680.06	0.185765
1681.24	0.186104
1682.43	0.19342
1683.61	0.189895
1684.8	0.191137
1685.98	0.193893
1687.17	0.197096
1688.35	0.193525
1689.54	0.193726
1690.72	0.19607
1691.91	0.198191
1693.09	0.197269
1694.28	0.199001
1695.46	0.190189
1696.65	0.182423
1697.83	0.181676
1699.02	0.178637
1700.2	0.181034
1701.39	0.178389
1702.57	0.175197
1703.76	0.172033
1704.94	0.170502
1706.13	0.168914
1707.31	0.166128
1708.5	0.166754
1709.68	0.16688
1710.87	0.158746
1712.05	0.160587
1713.24	0.166866
1714.42	0.163867
1715.61	0.160847
1716.79	0.159417
1717.98	0.162394
1719.16	0.16202
1720.35	0.167554
1721.53	0.169341
1722.72	0.168501
1723.9	0.166463
1725.09	0.163593
1726.27	0.167618
1727.46	0.172783
1728.64	0.17732
1729.83	0.173141
1731.01	0.172762
1732.2	0.177762
1733.38	0.180154
1734.57	0.178118
1735.75	0.173938
1736.94	0.16817
1738.12	0.165233
1739.31	0.161428
1740.49	0.161302
1741.68	0.154725
1742.86	0.148815
1744.05	0.145128
1745.23	0.136918
1746.42	0.13363
1747.6	0.129855
1748.79	0.120978
1749.97	0.116664
1751.16	0.116245
1752.34	0.121865
1753.53	0.122196
1754.71	0.118133
1755.9	0.116495
1757.08	0.117318
1758.27	0.117831
1759.45	0.116918
1760.64	0.115978
1761.82	0.114216
1763.01	0.113431
1764.19	0.107366
1765.38	0.105565
1766.56	0.0950442
1767.75	0.0929577
1768.93	0.0901938
1770.12	0.0824883
1771.3	0.0782365
1772.49	0.0776387
1773.67	0.0697692
1774.86	0.0656352
1776.04	0.0623456
1777.23	0.0598329
1778.41	0.0584605
1779.6	0.0536926
1780.78	0.0590426
1781.97	0.0566065
1783.15	0.0577836
1784.34	0.0519196
1785.52	0.0429278
1786.71	0.0370519
1787.89	0.0301265
1789.08	0.0234376
1790.26	0.0225565
1791.45	0.0163991
1792.63	0.0111435
1793.82	0.00127333
1795	-0.00574601
