405	0.245433
406.185	0.259376
407.37	0.28283
408.555	0.303323
409.74	0.321965
410.925	0.336016
412.11	0.346226
413.295	0.355431
414.48	0.362819
415.665	0.367049
416.85	0.375322
418.035	0.356525
419.22	0.344641
420.405	0.329248
421.59	0.315118
422.775	0.300897
423.96	0.285757
425.145	0.266329
426.33	0.241087
427.515	0.215981
428.7	0.190096
429.885	0.161801
431.07	0.133913
432.255	0.110565
433.44	0.0850301
434.625	0.0634123
435.81	0.0408333
436.995	0.0282284
438.18	0.0247614
439.365	0.0143334
440.55	0.0102993
441.735	0.00404362
442.92	-0.00426062
444.105	-0.00109459
445.29	-0.0105657
446.475	-0.00638995
447.66	-0.00058636
448.845	0.00600622
450.03	0.0179259
451.215	0.0302669
452.4	0.0381204
453.585	0.0510848
454.77	0.0611411
455.955	0.0752536
457.14	0.0882189
458.325	0.113921
459.51	0.143734
460.695	0.168417
461.88	0.194159
463.065	0.220325
464.25	0.251592
465.435	0.298152
466.62	0.338114
467.805	0.382655
468.99	0.435581
470.175	0.4782
471.36	0.526651
472.545	0.583791
473.73	0.636216
474.915	0.685114
476.1	0.727173
477.285	0.764349
478.47	0.805806
479.655	0.841791
480.84	0.873648
482.025	0.908575
483.21	0.933883
484.395	0.940453
485.58	0.944872
486.765	0.948225
487.95	0.938626
489.135	0.926558
490.32	0.916313
491.505	0.893946
492.69	0.86095
493.875	0.837191
495.06	0.811667
496.245	0.789123
497.43	0.749786
498.615	0.718833
499.8	0.691133
500.985	0.656554
502.17	0.617245
503.355	0.586911
504.54	0.565348
505.725	0.538608
506.91	0.511024
508.095	0.494498
509.28	0.46593
510.465	0.438984
511.65	0.430518
512.835	0.415065
514.02	0.399086
515.205	0.380182
516.39	0.36315
517.575	0.348361
518.76	0.333104
519.945	0.320988
521.13	0.315587
522.315	0.314301
523.5	0.306557
524.685	0.296855
525.87	0.297004
527.055	0.2832
528.24	0.275557
529.424	0.272697
530.61	0.266307
531.795	0.263424
532.98	0.268104
534.165	0.276038
535.35	0.288564
536.535	0.288295
537.72	0.289554
538.905	0.296326
540.09	0.298812
541.275	0.303867
542.46	0.305996
543.645	0.306343
544.83	0.309024
546.014	0.312945
547.199	0.316174
548.384	0.321043
549.569	0.325922
550.754	0.320549
551.939	0.315086
553.124	0.302654
554.309	0.291675
555.494	0.286465
556.679	0.281509
557.864	0.275698
559.049	0.271101
560.234	0.263951
561.419	0.256032
562.604	0.250641
563.789	0.244461
564.974	0.236027
566.159	0.233691
567.344	0.232413
568.529	0.223499
569.714	0.229104
570.899	0.226627
572.084	0.231968
573.269	0.231679
574.454	0.230749
575.639	0.230554
576.824	0.22665
578.009	0.222207
579.194	0.224004
580.379	0.227507
581.564	0.223218
582.749	0.215808
583.934	0.215412
585.119	0.207363
586.304	0.200471
587.489	0.202497
588.674	0.197139
589.859	0.194614
591.044	0.188411
592.229	0.178381
593.414	0.173278
594.599	0.171532
595.784	0.168073
596.969	0.164791
598.154	0.146715
599.339	0.144709
600.524	0.142672
601.709	0.148492
602.894	0.144662
604.079	0.149545
605.264	0.151057
606.449	0.141766
607.634	0.133212
608.819	0.129763
610.004	0.125959
611.189	0.123734
612.374	0.127992
613.559	0.127886
614.744	0.115809
615.929	0.115718
617.114	0.122396
618.299	0.121072
619.484	0.117613
620.669	0.104488
621.854	0.0938534
623.039	0.08015
624.224	0.0703607
625.409	0.066791
626.594	0.0660055
627.779	0.0604681
628.964	0.0525194
630.149	0.0514274
631.334	0.0398961
632.519	0.0307231
633.704	0.0329897
634.889	0.026054
636.074	0.017454
637.259	-0.00300002
638.444	-0.0090156
639.629	-0.00179765
640.814	0.00408638
641.999	0.0117461
643.184	0.0166118
644.369	0.0191281
645.554	0.0224466
646.739	0.0266196
647.924	0.0369991
649.109	0.046411
650.294	0.0593477
651.479	0.0633661
652.664	0.0673953
653.849	0.0740936
655.034	0.0889551
656.219	0.109432
657.404	0.122885
658.589	0.130341
659.774	0.1367
660.959	0.145105
662.144	0.152966
663.329	0.164412
664.514	0.176441
665.699	0.174648
666.884	0.17066
668.069	0.170957
669.254	0.168265
670.439	0.169742
671.624	0.191326
672.809	0.191493
673.994	0.188727
675.179	0.183703
676.364	0.177191
677.549	0.169665
678.734	0.16339
679.919	0.149932
681.104	0.141343
682.289	0.140449
683.474	0.135411
684.659	0.131924
685.844	0.128714
687.029	0.128319
688.214	0.12809
689.399	0.130054
690.584	0.109998
691.769	0.0984669
692.954	0.0883699
694.139	0.088928
695.324	0.0933061
696.509	0.0887834
697.694	0.0870395
698.879	0.0927171
700.064	0.0843972
701.249	0.0688478
702.434	0.0662515
703.619	0.0700358
704.804	0.0685381
705.989	0.0597113
707.174	0.0608791
708.359	0.0558885
709.544	0.0534195
710.729	0.0607437
711.914	0.0658418
713.099	0.0640609
714.284	0.0556939
715.469	0.0600706
716.654	0.0605424
717.839	0.0584715
719.024	0.0694209
720.209	0.078701
721.394	0.0808011
722.579	0.086531
723.764	0.0947471
724.949	0.0969988
726.134	0.0939206
727.319	0.0949574
728.504	0.0982019
729.689	0.101759
730.874	0.110007
732.059	0.0974787
733.244	0.105682
734.429	0.102091
735.614	0.0980447
736.799	0.0996946
737.984	0.100758
739.169	0.098041
740.354	0.0973784
741.539	0.0909489
742.724	0.0888279
743.909	0.0891879
745.094	0.0859845
746.279	0.0860224
747.464	0.0829943
748.649	0.0796631
749.834	0.0763429
751.019	0.083664
752.204	0.0783692
753.389	0.0803554
754.574	0.0865264
755.759	0.0847175
756.944	0.0736464
758.129	0.0660613
759.314	0.0548765
760.499	0.0523189
761.684	0.0422532
762.869	0.0384788
764.054	0.0401323
765.239	0.0456218
766.424	0.0487505
767.609	0.0441897
768.794	0.0399284
769.979	0.0387183
771.164	0.0355497
772.349	0.0347867
773.534	0.0350502
774.719	0.0344534
775.904	0.0359543
777.089	0.0304914
778.274	0.036165
779.459	0.0300825
780.644	0.0349137
781.829	0.0460738
783.014	0.0367173
784.199	0.022928
785.384	0.0128104
786.569	0.00797726
787.754	0.00239795
788.939	-0.000250646
790.124	0.00233543
791.309	0.00184253
792.494	0.00114253
793.679	0.00818248
794.864	0.0218017
796.049	0.039401
797.234	0.0510062
798.419	0.0718773
799.604	0.0941753
800.789	0.108712
801.974	0.139061
803.159	0.168597
804.344	0.203992
805.529	0.243028
806.714	0.270092
807.898	0.287226
809.083	0.300088
810.268	0.318172
811.454	0.335397
812.639	0.345462
813.824	0.34983
815.009	0.359374
816.194	0.369884
817.379	0.370187
818.564	0.366149
819.749	0.368101
820.934	0.374293
822.119	0.381273
823.304	0.38767
824.489	0.394321
825.673	0.412036
826.858	0.438153
828.043	0.473933
829.228	0.507223
830.413	0.539697
831.598	0.5869
832.783	0.631017
833.968	0.663518
835.153	0.702636
836.338	0.737997
837.523	0.772832
838.708	0.800555
839.893	0.829452
841.078	0.848834
842.263	0.865131
843.448	0.87638
844.633	0.884618
845.818	0.88428
847.003	0.875606
848.188	0.861795
849.373	0.845612
850.558	0.830173
851.743	0.811886
852.928	0.792572
854.113	0.767355
855.298	0.751369
856.483	0.721212
857.668	0.693824
858.853	0.661243
860.038	0.638344
861.223	0.604557
862.408	0.572541
863.593	0.542908
864.778	0.516609
865.963	0.492366
867.148	0.47022
868.333	0.434428
869.518	0.403431
870.703	0.372821
871.888	0.34956
873.073	0.322093
874.258	0.307429
875.443	0.294751
876.628	0.282547
877.813	0.27228
878.998	0.26484
880.183	0.26448
881.368	0.2663
882.553	0.265588
883.738	0.263467
884.923	0.260882
886.108	0.265441
887.293	0.278751
888.478	0.291874
889.663	0.310874
890.848	0.327012
892.033	0.335492
893.218	0.346421
894.403	0.372502
895.588	0.386666
896.773	0.395212
897.958	0.404252
899.143	0.416171
900.328	0.429149
901.513	0.447847
902.698	0.468318
903.883	0.484045
905.068	0.498501
906.253	0.510733
907.438	0.518445
908.623	0.521477
909.808	0.5354
910.993	0.542673
912.178	0.533625
913.363	0.526455
914.548	0.526679
915.733	0.529289
916.918	0.522399
918.103	0.50445
919.288	0.486564
920.473	0.465755
921.658	0.447059
922.843	0.433154
924.028	0.405432
925.213	0.37572
926.398	0.345019
927.583	0.320848
928.768	0.292073
929.953	0.275927
931.138	0.257057
932.323	0.229195
933.508	0.20767
934.693	0.189615
935.878	0.18216
937.063	0.173313
938.248	0.162489
939.433	0.156749
940.618	0.132933
941.803	0.12581
942.988	0.117184
944.173	0.119049
945.358	0.113831
946.543	0.110578
947.728	0.109989
948.913	0.106278
950.098	0.11249
951.283	0.113201
952.468	0.116132
953.653	0.118551
954.838	0.122112
956.023	0.123691
957.208	0.128507
958.393	0.140877
959.578	0.153036
960.763	0.165724
961.948	0.175315
963.133	0.179719
964.318	0.184093
965.503	0.192312
966.688	0.201608
967.873	0.207397
969.058	0.212195
970.243	0.216507
971.428	0.216705
972.613	0.216063
973.798	0.217438
974.983	0.210217
976.168	0.204496
977.353	0.204518
978.538	0.197234
979.723	0.189673
980.908	0.188415
982.093	0.192427
983.278	0.194145
984.463	0.175721
985.648	0.171427
986.833	0.16845
988.018	0.165985
989.203	0.164414
990.388	0.170677
991.573	0.169138
992.758	0.170805
993.943	0.190445
995.128	0.189559
996.313	0.195013
997.498	0.2045
998.683	0.208694
999.868	0.212394
1001.05	0.215109
1002.24	0.224658
1003.42	0.232918
1004.61	0.237422
1005.79	0.254936
1006.98	0.263674
1008.16	0.276595
1009.35	0.28717
1010.53	0.307208
1011.72	0.323126
1012.9	0.332218
1014.09	0.346123
1015.27	0.366871
1016.46	0.389313
1017.64	0.415874
1018.83	0.442227
1020.01	0.466948
1021.2	0.487266
1022.38	0.508797
1023.57	0.529886
1024.75	0.556968
1025.94	0.583678
1027.12	0.606415
1028.31	0.625519
1029.49	0.640914
1030.68	0.657687
1031.86	0.679275
1033.05	0.699225
1034.23	0.717429
1035.42	0.734504
1036.6	0.748917
1037.79	0.759454
1038.97	0.769774
1040.16	0.78434
1041.34	0.791972
1042.53	0.789176
1043.71	0.781254
1044.9	0.774435
1046.08	0.773273
1047.27	0.772425
1048.45	0.766935
1049.64	0.760476
1050.82	0.745913
1052.01	0.726066
1053.19	0.704825
1054.38	0.682728
1055.56	0.664666
1056.75	0.65188
1057.93	0.628032
1059.12	0.601971
1060.3	0.577796
1061.49	0.55961
1062.67	0.545905
1063.86	0.528318
1065.04	0.509125
1066.23	0.497353
1067.41	0.48101
1068.6	0.467179
1069.78	0.451852
1070.97	0.441113
1072.15	0.429107
1073.34	0.419656
1074.52	0.410902
1075.71	0.411997
1076.89	0.413171
1078.08	0.414149
1079.26	0.418731
1080.45	0.411034
1081.63	0.408108
1082.82	0.402361
1084	0.394535
1085.19	0.392527
1086.37	0.390083
1087.56	0.395306
1088.74	0.395679
1089.93	0.39824
1091.11	0.393166
1092.3	0.387955
1093.48	0.381148
1094.67	0.378237
1095.85	0.374679
1097.04	0.361254
1098.22	0.360285
1099.41	0.353006
1100.59	0.352222
1101.78	0.345996
1102.96	0.339208
1104.15	0.325525
1105.33	0.315357
1106.52	0.305338
1107.7	0.295193
1108.89	0.286776
1110.07	0.271389
1111.26	0.259067
1112.44	0.245828
1113.63	0.23262
1114.81	0.217513
1116	0.203675
1117.18	0.193603
1118.37	0.174217
1119.55	0.154559
1120.74	0.147045
1121.92	0.132356
1123.11	0.121453
1124.29	0.10774
1125.48	0.0942056
1126.66	0.0763581
1127.85	0.0759933
1129.03	0.0700044
1130.22	0.0610962
1131.4	0.0588198
1132.59	0.0534536
1133.77	0.0461543
1134.96	0.0438892
1136.14	0.0472124
1137.33	0.0509093
1138.51	0.0427538
1139.7	0.053576
1140.88	0.0538709
1142.07	0.0597653
1143.25	0.0563948
1144.44	0.0640079
1145.62	0.0623397
1146.81	0.0645223
1147.99	0.0617351
1149.18	0.057644
1150.36	0.0549535
1151.55	0.0549847
1152.73	0.0538128
1153.92	0.0501926
1155.1	0.0411762
1156.29	0.0355857
1157.47	0.0278063
1158.66	0.025679
1159.84	0.0234007
1161.03	0.0208094
1162.21	0.0186764
1163.4	0.00956005
1164.58	0.00114383
1165.77	-0.00109099
1166.95	0.00322513
1168.14	0.0135338
1169.32	0.0118835
1170.51	0.0116822
1171.69	0.0122424
1172.88	0.0142967
1174.06	0.019129
1175.25	0.0242661
1176.43	0.0218998
1177.62	0.0221166
1178.8	0.029854
1179.99	0.0347432
1181.17	0.0422055
1182.36	0.0507129
1183.54	0.0557837
1184.73	0.0578457
1185.91	0.0613892
1187.1	0.0719313
1188.28	0.0795821
1189.47	0.0849124
1190.65	0.0922761
1191.84	0.097819
1193.02	0.101583
1194.21	0.107808
1195.39	0.113711
1196.58	0.113474
1197.76	0.11063
1198.95	0.106987
1200.13	0.107699
1201.32	0.113582
1202.5	0.116556
1203.69	0.119158
1204.87	0.119078
1206.06	0.119191
1207.24	0.121859
1208.43	0.12237
1209.61	0.124782
1210.8	0.131443
1211.98	0.137338
1213.17	0.139111
1214.35	0.148945
1215.54	0.167865
1216.72	0.18937
1217.91	0.197687
1219.09	0.200458
1220.28	0.209064
1221.46	0.215195
1222.65	0.218127
1223.83	0.22287
1225.02	0.237955
1226.2	0.249042
1227.39	0.258422
1228.57	0.265341
1229.76	0.274091
1230.94	0.281888
1232.13	0.294796
1233.31	0.299272
1234.5	0.302785
1235.68	0.310528
1236.87	0.320851
1238.05	0.325925
1239.24	0.333785
1240.42	0.34951
1241.61	0.355453
1242.79	0.360955
1243.98	0.373388
1245.16	0.379294
1246.35	0.387786
1247.53	0.399219
1248.72	0.401948
1249.9	0.400994
1251.09	0.401195
1252.27	0.407932
1253.46	0.409607
1254.64	0.413129
1255.83	0.416843
1257.01	0.420588
1258.2	0.424754
1259.38	0.430843
1260.57	0.429448
1261.75	0.424387
1262.94	0.427918
1264.12	0.431178
1265.31	0.43002
1266.49	0.424955
1267.68	0.420188
1268.86	0.414437
1270.05	0.414096
1271.23	0.417251
1272.42	0.412834
1273.6	0.408088
1274.79	0.399138
1275.97	0.39489
1277.16	0.39179
1278.34	0.392178
1279.53	0.388698
1280.71	0.368179
1281.9	0.363117
1283.08	0.359358
1284.27	0.368337
1285.45	0.372564
1286.64	0.368576
1287.82	0.361768
1289.01	0.363905
1290.19	0.374729
1291.38	0.36871
1292.56	0.373663
1293.75	0.368255
1294.93	0.36672
1296.12	0.36841
1297.3	0.374274
1298.49	0.382835
1299.67	0.373818
1300.86	0.377786
1302.04	0.380873
1303.23	0.383309
1304.41	0.390984
1305.6	0.392812
1306.78	0.386691
1307.97	0.388594
1309.15	0.396941
1310.34	0.399494
1311.52	0.404614
1312.71	0.407375
1313.89	0.407398
1315.08	0.407376
1316.26	0.409948
1317.45	0.410792
1318.63	0.403908
1319.82	0.397795
1321	0.395623
1322.19	0.391838
1323.37	0.388938
1324.56	0.386806
1325.74	0.382169
1326.93	0.375385
1328.11	0.370982
1329.3	0.365017
1330.48	0.362805
1331.67	0.358086
1332.85	0.353742
1334.04	0.355861
1335.22	0.351122
1336.41	0.353322
1337.59	0.352237
1338.78	0.351483
1339.96	0.346235
1341.15	0.342549
1342.33	0.336254
1343.52	0.332329
1344.7	0.328328
1345.89	0.321268
1347.07	0.316788
1348.26	0.313445
1349.44	0.306788
1350.63	0.302328
1351.81	0.305485
1353	0.303946
1354.18	0.297264
1355.37	0.283848
1356.55	0.278817
1357.74	0.27685
1358.92	0.279662
1360.11	0.277306
1361.29	0.273904
1362.48	0.272681
1363.66	0.276694
1364.85	0.277368
1366.03	0.275772
1367.22	0.277047
1368.4	0.27034
1369.59	0.265859
1370.77	0.265259
1371.96	0.268754
1373.14	0.268188
1374.33	0.268364
1375.51	0.26352
1376.7	0.256475
1377.88	0.251188
1379.07	0.255993
1380.25	0.258885
1381.44	0.256323
1382.62	0.25625
1383.81	0.253864
1384.99	0.252286
1386.18	0.25216
1387.36	0.25531
1388.55	0.254079
1389.73	0.257481
1390.92	0.257018
1392.1	0.256691
1393.29	0.25455
1394.47	0.264387
1395.66	0.259445
1396.84	0.248088
1398.03	0.247366
1399.21	0.249171
1400.4	0.247805
1401.58	0.251089
1402.77	0.251966
1403.95	0.245268
1405.14	0.243625
1406.32	0.248507
1407.51	0.250743
1408.69	0.251761
1409.88	0.252693
1411.06	0.248993
1412.25	0.248608
1413.43	0.2482
1414.62	0.247286
1415.8	0.238953
1416.99	0.24221
1418.17	0.24354
1419.36	0.24487
1420.54	0.250907
1421.73	0.251051
1422.91	0.246772
1424.1	0.242536
1425.28	0.248112
1426.47	0.251056
1427.65	0.2614
1428.84	0.27151
1430.02	0.288404
1431.21	0.302634
1432.39	0.315334
1433.58	0.327742
1434.76	0.337539
1435.95	0.35083
1437.13	0.365355
1438.32	0.386351
1439.5	0.406777
1440.69	0.433511
1441.87	0.443394
1443.06	0.464096
1444.24	0.478173
1445.43	0.501454
1446.61	0.509808
1447.8	0.525189
1448.98	0.542397
1450.17	0.555643
1451.35	0.569536
1452.54	0.578071
1453.72	0.581949
1454.91	0.584721
1456.09	0.588441
1457.28	0.585499
1458.46	0.582364
1459.65	0.574675
1460.83	0.564978
1462.02	0.552508
1463.2	0.538775
1464.39	0.521375
1465.57	0.501202
1466.76	0.477572
1467.94	0.460099
1469.13	0.436855
1470.31	0.407127
1471.5	0.387626
1472.68	0.35497
1473.87	0.324216
1475.05	0.302343
1476.24	0.277076
1477.42	0.259548
1478.61	0.236948
1479.79	0.218479
1480.98	0.199603
1482.16	0.180052
1483.35	0.162786
1484.53	0.144878
1485.72	0.136523
1486.9	0.130972
1488.09	0.119762
1489.27	0.114006
1490.46	0.110282
1491.64	0.0991779
1492.83	0.100172
1494.01	0.0890754
1495.2	0.0813275
1496.38	0.0731306
1497.57	0.0675611
1498.75	0.0691441
1499.94	0.0721587
1501.12	0.0724459
1502.31	0.0653052
1503.49	0.0632717
1504.68	0.0602957
1505.86	0.0593141
1507.05	0.0557624
1508.23	0.0508641
1509.42	0.0513153
1510.6	0.0530717
1511.79	0.0593346
1512.97	0.0589
1514.16	0.0632381
1515.34	0.0587475
1516.53	0.0525746
1517.71	0.0469142
1518.9	0.045124
1520.08	0.0399655
1521.27	0.0353155
1522.45	0.0320619
1523.64	0.0331092
1524.82	0.0340776
1526.01	0.030114
1527.19	0.0270966
1528.38	0.0256132
1529.56	0.0237559
1530.75	0.0194994
1531.93	0.0218351
1533.12	0.0260264
1534.3	0.0276316
1535.49	0.0298546
1536.67	0.0292387
1537.86	0.029984
1539.04	0.0280197
1540.23	0.0251361
1541.41	0.0240341
1542.6	0.0247036
1543.78	0.0283007
1544.97	0.0240914
1546.15	0.0252301
1547.34	0.0237503
1548.52	0.018157
1549.71	0.0172947
1550.89	0.0154253
1552.08	0.0121741
1553.26	0.0126199
1554.45	0.0127055
1555.63	0.0139327
1556.82	0.0163924
1558	0.017976
1559.19	0.0174954
1560.37	0.0161761
1561.56	0.0172906
1562.74	0.0150088
1563.93	0.0152908
1565.11	0.0159855
1566.3	0.0109817
1567.48	0.0124939
1568.67	0.014013
1569.85	0.0156093
1571.04	0.0143125
1572.22	0.0133558
1573.41	0.0105559
1574.59	0.0115693
1575.78	0.0130454
1576.96	0.0103726
1578.15	0.00820126
1579.33	0.00664816
1580.52	0.0049835
1581.7	0.00695064
1582.89	0.011572
1584.07	0.0107312
1585.26	0.0100341
1586.44	0.0118334
1587.63	0.0159266
1588.81	0.018042
1590	0.020141
1591.18	0.0207507
1592.37	0.0209625
1593.55	0.0236074
1594.74	0.0283361
1595.92	0.0338189
1597.11	0.0424842
1598.29	0.0445268
1599.48	0.0452555
1600.66	0.0495991
1601.85	0.0546095
1603.03	0.058882
1604.22	0.0610233
1605.4	0.0607964
1606.59	0.0618575
1607.77	0.0639639
1608.96	0.0654268
1610.14	0.0659674
1611.33	0.0672149
1612.51	0.0674504
1613.7	0.0627205
1614.88	0.0651769
1616.07	0.0680644
1617.25	0.0721944
1618.44	0.0715794
1619.62	0.0692112
1620.81	0.0725704
1621.99	0.0812533
1623.18	0.086753
1624.36	0.0904615
1625.55	0.093344
1626.73	0.0973016
1627.92	0.102808
1629.1	0.101737
1630.29	0.10703
1631.47	0.111309
1632.66	0.112776
1633.84	0.117868
1635.03	0.122429
1636.21	0.123398
1637.4	0.126339
1638.58	0.125595
1639.77	0.124165
1640.95	0.125917
1642.14	0.127407
1643.32	0.127057
1644.51	0.131899
1645.69	0.13887
1646.88	0.141567
1648.06	0.144175
1649.25	0.143313
1650.43	0.145925
1651.62	0.148516
1652.8	0.147833
1653.99	0.14304
1655.17	0.147638
1656.36	0.152268
1657.54	0.154012
1658.73	0.15928
1659.91	0.161022
1661.1	0.161385
1662.28	0.161671
1663.47	0.163096
1664.65	0.170325
1665.84	0.17374
1667.02	0.17115
1668.21	0.168955
1669.39	0.175752
1670.58	0.179138
1671.76	0.17728
1672.95	0.179085
1674.13	0.176969
1675.32	0.173723
1676.5	0.176136
1677.69	0.175487
1678.87	0.172085
1680.06	0.171356
1681.24	0.164638
1682.43	0.163539
1683.61	0.160754
1684.8	0.167667
1685.98	0.165196
1687.17	0.163033
1688.35	0.159577
1689.54	0.156553
1690.72	0.158048
1691.91	0.160506
1693.09	0.159917
1694.28	0.160023
1695.46	0.161991
1696.65	0.157203
1697.83	0.154892
1699.02	0.153349
1700.2	0.154133
1701.39	0.145198
1702.57	0.146288
1703.76	0.146657
1704.94	0.147192
1706.13	0.149684
1707.31	0.150227
1708.5	0.146231
1709.68	0.14164
1710.87	0.141131
1712.05	0.141671
1713.24	0.147891
1714.42	0.149121
1715.61	0.146694
1716.79	0.148785
1717.98	0.152995
1719.16	0.149637
1720.35	0.148965
1721.53	0.150076
1722.72	0.148197
1723.9	0.148195
1725.09	0.151909
1726.27	0.155636
1727.46	0.159378
1728.64	0.15516
1729.83	0.149697
1731.01	0.147156
1732.2	0.147554
1733.38	0.144224
1734.57	0.14402
1735.75	0.146052
1736.94	0.145398
1738.12	0.142645
1739.31	0.139032
1740.49	0.132126
1741.68	0.126798
1742.86	0.121922
1744.05	0.114993
1745.23	0.114186
1746.42	0.113932
1747.6	0.111902
1748.79	0.109699
1749.97	0.106088
1751.16	0.100458
1752.34	0.09921
1753.53	0.096918
1754.71	0.0930433
1755.9	0.0918243
1757.08	0.0938412
1758.27	0.0933416
1759.45	0.0941713
1760.64	0.0943483
1761.82	0.0937611
1763.01	0.0935508
1764.19	0.0928882
1765.38	0.0893832
1766.56	0.0890595
1767.75	0.0876559
1768.93	0.0813868
1770.12	0.0778243
1771.3	0.0795475
1772.49	0.0764938
1773.67	0.071747
1774.86	0.0661964
1776.04	0.0592224
1777.23	0.0519404
1778.41	0.0488392
1779.6	0.0439805
1780.78	0.0389178
1781.97	0.0407987
1783.15	0.0360256
1784.34	0.0311093
1785.52	0.0251129
1786.71	0.020155
1787.89	0.0134319
1789.08	0.01179
1790.26	0.0107362
1791.45	0.0116781
1792.63	0.00992468
1793.82	0.00657336
1795	0.00357283
