405	0.252134
406.185	0.290049
407.37	0.319257
408.555	0.33965
409.74	0.352277
410.925	0.359891
412.11	0.365492
413.295	0.364868
414.48	0.356419
415.665	0.356308
416.85	0.352185
418.035	0.334649
419.22	0.313949
420.405	0.292059
421.59	0.263647
422.775	0.236453
423.96	0.208303
425.145	0.18166
426.33	0.162792
427.515	0.145835
428.7	0.130302
429.885	0.120554
431.07	0.10107
432.255	0.0671222
433.44	0.0525155
434.625	0.0388589
435.81	0.0259185
436.995	0.0132181
438.18	0.00579085
439.365	0.00947963
440.55	0.00489259
441.735	7.34569e-005
442.92	-0.0019424
444.105	0.00114969
445.29	-0.00168178
446.475	-0.000530557
447.66	-0.00224335
448.845	-0.00453606
450.03	-0.0061536
451.215	-0.00108613
452.4	0.0173299
453.585	0.0293674
454.77	0.038667
455.955	0.0510296
457.14	0.0752688
458.325	0.0928297
459.51	0.121386
460.695	0.160298
461.88	0.19427
463.065	0.221973
464.25	0.258221
465.435	0.305673
466.62	0.342529
467.805	0.377869
468.99	0.420857
470.175	0.486643
471.36	0.540377
472.545	0.592432
473.73	0.647585
474.915	0.700654
476.1	0.747732
477.285	0.79155
478.47	0.830697
479.655	0.853756
480.84	0.872057
482.025	0.905799
483.21	0.933389
484.395	0.934476
485.58	0.932771
486.765	0.942266
487.95	0.948225
489.135	0.93814
490.32	0.919335
491.505	0.901441
492.69	0.878095
493.875	0.846654
495.06	0.818664
496.245	0.787586
497.43	0.74396
498.615	0.718366
499.8	0.684443
500.985	0.647754
502.17	0.613977
503.355	0.583671
504.54	0.558678
505.725	0.532848
506.91	0.491257
508.095	0.453359
509.28	0.422793
510.465	0.39616
511.65	0.373379
512.835	0.358069
514.02	0.342463
515.205	0.328091
516.39	0.321586
517.575	0.316182
518.76	0.311164
519.945	0.310725
521.13	0.29817
522.315	0.29196
523.5	0.289642
524.685	0.279547
525.87	0.289158
527.055	0.290007
528.24	0.293407
529.424	0.296688
530.61	0.300483
531.795	0.305962
532.98	0.312174
534.165	0.317757
535.35	0.317802
536.535	0.306183
537.72	0.307358
538.905	0.309805
540.09	0.318709
541.275	0.319732
542.46	0.314679
543.645	0.315811
544.83	0.322331
546.014	0.33043
547.199	0.335122
548.384	0.334996
549.569	0.335411
550.754	0.335712
551.939	0.33054
553.124	0.326034
554.309	0.312624
555.494	0.315597
556.679	0.299548
557.864	0.285584
559.049	0.284434
560.234	0.285918
561.419	0.287579
562.604	0.29014
563.789	0.284417
564.974	0.269248
566.159	0.26546
567.344	0.264576
568.529	0.267732
569.714	0.259495
570.899	0.254859
572.084	0.257595
573.269	0.259465
574.454	0.259527
575.639	0.255822
576.824	0.251677
578.009	0.243847
579.194	0.230889
580.379	0.22294
581.564	0.216105
582.749	0.210837
583.934	0.212961
585.119	0.203008
586.304	0.205161
587.489	0.192618
588.674	0.187237
589.859	0.186029
591.044	0.181315
592.229	0.181592
593.414	0.191533
594.599	0.20607
595.784	0.215615
596.969	0.211604
598.154	0.208892
599.339	0.203053
600.524	0.197723
601.709	0.190652
602.894	0.185761
604.079	0.184108
605.264	0.170657
606.449	0.169817
607.634	0.163514
608.819	0.154041
610.004	0.146816
611.189	0.136548
612.374	0.121088
613.559	0.0980837
614.744	0.0904427
615.929	0.096591
617.114	0.0900859
618.299	0.0895707
619.484	0.077358
620.669	0.0749975
621.854	0.0670226
623.039	0.0599189
624.224	0.0592951
625.409	0.0508937
626.594	0.0386961
627.779	0.0327954
628.964	0.0301634
630.149	0.0286581
631.334	0.0195192
632.519	0.010576
633.704	0.0135645
634.889	0.00406579
636.074	0.00128479
637.259	-0.00148567
638.444	0.00178201
639.629	-0.00225257
640.814	-0.00165964
641.999	0.000372825
643.184	0.00504897
644.369	0.0152363
645.554	0.0232196
646.739	0.0261403
647.924	0.0316835
649.109	0.0353779
650.294	0.0507985
651.479	0.0758879
652.664	0.0824116
653.849	0.0886402
655.034	0.101519
656.219	0.11626
657.404	0.1368
658.589	0.158641
659.774	0.171871
660.959	0.183797
662.144	0.191538
663.329	0.191529
664.514	0.197805
665.699	0.211394
666.884	0.212807
668.069	0.216651
669.254	0.216954
670.439	0.217458
671.624	0.220065
672.809	0.216716
673.994	0.209257
675.179	0.200435
676.364	0.189631
677.549	0.175921
678.734	0.170861
679.919	0.169823
681.104	0.165486
682.289	0.160298
683.474	0.157238
684.659	0.153596
685.844	0.146826
687.029	0.143529
688.214	0.137986
689.399	0.120883
690.584	0.111242
691.769	0.114058
692.954	0.104839
694.139	0.0992404
695.324	0.0911208
696.509	0.0873684
697.694	0.0791492
698.879	0.0778406
700.064	0.076212
701.249	0.0731392
702.434	0.0735725
703.619	0.0739062
704.804	0.076929
705.989	0.0757762
707.174	0.0790414
708.359	0.0933448
709.544	0.0956328
710.729	0.0949396
711.914	0.105318
713.099	0.111881
714.284	0.121494
715.469	0.127859
716.654	0.127607
717.839	0.122309
719.024	0.129075
720.209	0.136021
721.394	0.129757
722.579	0.127271
723.764	0.13126
724.949	0.128204
726.134	0.132814
727.319	0.136927
728.504	0.141341
729.689	0.138812
730.874	0.137808
732.059	0.129551
733.244	0.135986
734.429	0.137244
735.614	0.135579
736.799	0.125268
737.984	0.114611
739.169	0.11443
740.354	0.127504
741.539	0.127052
742.724	0.122259
743.909	0.121132
745.094	0.112032
746.279	0.102844
747.464	0.102463
748.649	0.104937
749.834	0.105833
751.019	0.104749
752.204	0.0927828
753.389	0.0945677
754.574	0.103744
755.759	0.116711
756.944	0.122588
758.129	0.119245
759.314	0.111288
760.499	0.106209
761.684	0.100058
762.869	0.0940249
764.054	0.0899271
765.239	0.085166
766.424	0.0785366
767.609	0.0724697
768.794	0.0678436
769.979	0.0631263
771.164	0.0586184
772.349	0.0558896
773.534	0.0531963
774.719	0.040912
775.904	0.026386
777.089	0.0160004
778.274	0.013252
779.459	0.00709989
780.644	0.0118424
781.829	0.0123802
783.014	0.0141381
784.199	0.00559484
785.384	3.93128e-005
786.569	-3.35846e-005
787.754	0.00267351
788.939	0.00715095
790.124	0.00829913
791.309	0.011092
792.494	0.0187684
793.679	0.0317185
794.864	0.0521199
796.049	0.0689755
797.234	0.0849434
798.419	0.10308
799.604	0.116502
800.789	0.149466
801.974	0.175859
803.159	0.206077
804.344	0.238074
805.529	0.259522
806.714	0.293672
807.898	0.32124
809.083	0.343801
810.268	0.358423
811.454	0.369178
812.639	0.373084
813.824	0.376269
815.009	0.378376
816.194	0.384787
817.379	0.397691
818.564	0.396857
819.749	0.383264
820.934	0.380199
822.119	0.385166
823.304	0.395326
824.489	0.409147
825.673	0.417416
826.858	0.433751
828.043	0.461153
829.228	0.488288
830.413	0.518202
831.598	0.552499
832.783	0.602637
833.968	0.657356
835.153	0.702703
836.338	0.737771
837.523	0.780319
838.708	0.820388
839.893	0.851412
841.078	0.871254
842.263	0.882733
843.448	0.890663
844.633	0.89512
845.818	0.89205
847.003	0.878455
848.188	0.870243
849.373	0.868038
850.558	0.850702
851.743	0.819789
852.928	0.779715
854.113	0.743309
855.298	0.716236
856.483	0.686581
857.668	0.661726
858.853	0.628697
860.038	0.598455
861.223	0.571903
862.408	0.544851
863.593	0.529654
864.778	0.502799
865.963	0.488897
867.148	0.461508
868.333	0.431015
869.518	0.403833
870.703	0.383173
871.888	0.374452
873.073	0.359386
874.258	0.347297
875.443	0.333722
876.628	0.331487
877.813	0.333339
878.998	0.33043
880.183	0.327743
881.368	0.324228
882.553	0.321931
883.738	0.324752
884.923	0.331132
886.108	0.341702
887.293	0.35485
888.478	0.367211
889.663	0.377899
890.848	0.386717
892.033	0.405706
893.218	0.418587
894.403	0.429408
895.588	0.422339
896.773	0.444508
897.958	0.46318
899.143	0.476695
900.328	0.489964
901.513	0.505514
902.698	0.51663
903.883	0.522249
905.068	0.531089
906.253	0.540961
907.438	0.562086
908.623	0.572341
909.808	0.573241
910.993	0.570921
912.178	0.571851
913.363	0.574521
914.548	0.566168
915.733	0.55277
916.918	0.539803
918.103	0.520289
919.288	0.500908
920.473	0.484561
921.658	0.459646
922.843	0.434841
924.028	0.418579
925.213	0.392532
926.398	0.358711
927.583	0.331164
928.768	0.309924
929.953	0.28531
931.138	0.258343
932.323	0.243797
933.508	0.234553
934.693	0.217706
935.878	0.204269
937.063	0.199716
938.248	0.184514
939.433	0.176224
940.618	0.18337
941.803	0.180064
942.988	0.172031
944.173	0.169283
945.358	0.176294
946.543	0.171233
947.728	0.172025
948.913	0.180982
950.098	0.186789
951.283	0.189071
952.468	0.188745
953.653	0.193852
954.838	0.204375
956.023	0.212748
957.208	0.21966
958.393	0.227028
959.578	0.231526
960.763	0.23617
961.948	0.244162
963.133	0.245988
964.318	0.243961
965.503	0.244929
966.688	0.241424
967.873	0.235203
969.058	0.229162
970.243	0.224709
971.428	0.229736
972.613	0.228943
973.798	0.218123
974.983	0.208682
976.168	0.198089
977.353	0.190906
978.538	0.189025
979.723	0.183151
980.908	0.181852
982.093	0.184006
983.278	0.195292
984.463	0.205391
985.648	0.21761
986.833	0.226312
988.018	0.231122
989.203	0.23074
990.388	0.233126
991.573	0.244116
992.758	0.249521
993.943	0.258384
995.128	0.26628
996.313	0.265159
997.498	0.277402
998.683	0.28159
999.868	0.284331
1001.05	0.288926
1002.24	0.286743
1003.42	0.286586
1004.61	0.293131
1005.79	0.304111
1006.98	0.313847
1008.16	0.329776
1009.35	0.337589
1010.53	0.357373
1011.72	0.379713
1012.9	0.399088
1014.09	0.415128
1015.27	0.431557
1016.46	0.45125
1017.64	0.473598
1018.83	0.49059
1020.01	0.513142
1021.2	0.542557
1022.38	0.568574
1023.57	0.585494
1024.75	0.608172
1025.94	0.633701
1027.12	0.656349
1028.31	0.676875
1029.49	0.697219
1030.68	0.708355
1031.86	0.719206
1033.05	0.73274
1034.23	0.741305
1035.42	0.755777
1036.6	0.777058
1037.79	0.788394
1038.97	0.788572
1040.16	0.789853
1041.34	0.797655
1042.53	0.806897
1043.71	0.802453
1044.9	0.789379
1046.08	0.778461
1047.27	0.763856
1048.45	0.754492
1049.64	0.754449
1050.82	0.739326
1052.01	0.719821
1053.19	0.706276
1054.38	0.691271
1055.56	0.674957
1056.75	0.667015
1057.93	0.655815
1059.12	0.640214
1060.3	0.617483
1061.49	0.597896
1062.67	0.593059
1063.86	0.576429
1065.04	0.563549
1066.23	0.5477
1067.41	0.530004
1068.6	0.517369
1069.78	0.509615
1070.97	0.492473
1072.15	0.475016
1073.34	0.458431
1074.52	0.438613
1075.71	0.428006
1076.89	0.415639
1078.08	0.410956
1079.26	0.403125
1080.45	0.381674
1081.63	0.386428
1082.82	0.384748
1084	0.379254
1085.19	0.378477
1086.37	0.377822
1087.56	0.376388
1088.74	0.377878
1089.93	0.375401
1091.11	0.383224
1092.3	0.380719
1093.48	0.375421
1094.67	0.380739
1095.85	0.376615
1097.04	0.371297
1098.22	0.372004
1099.41	0.369874
1100.59	0.36634
1101.78	0.364015
1102.96	0.35969
1104.15	0.359278
1105.33	0.35631
1106.52	0.35249
1107.7	0.341582
1108.89	0.326008
1110.07	0.316619
1111.26	0.299527
1112.44	0.276878
1113.63	0.259799
1114.81	0.249322
1116	0.232376
1117.18	0.211533
1118.37	0.190317
1119.55	0.17761
1120.74	0.15595
1121.92	0.133079
1123.11	0.118686
1124.29	0.0973094
1125.48	0.0881901
1126.66	0.0810257
1127.85	0.0772781
1129.03	0.0734293
1130.22	0.0668942
1131.4	0.0647829
1132.59	0.063571
1133.77	0.057015
1134.96	0.0560551
1136.14	0.052224
1137.33	0.0576085
1138.51	0.0592226
1139.7	0.0688352
1140.88	0.0726802
1142.07	0.0812187
1143.25	0.0806834
1144.44	0.07316
1145.62	0.0793781
1146.81	0.0751366
1147.99	0.0769286
1149.18	0.0731875
1150.36	0.0648651
1151.55	0.0734555
1152.73	0.0809621
1153.92	0.0843013
1155.1	0.0758102
1156.29	0.0757964
1157.47	0.0651348
1158.66	0.051995
1159.84	0.0425199
1161.03	0.032643
1162.21	0.0228005
1163.4	0.0171059
1164.58	0.0129724
1165.77	0.00581877
1166.95	0.000677292
1168.14	0.00255224
1169.32	0.00143547
1170.51	-0.00533936
1171.69	-0.00798646
1172.88	-0.0105657
1174.06	-0.0100075
1175.25	-0.00139217
1176.43	0.00572592
1177.62	0.00811712
1178.8	0.0180596
1179.99	0.0361977
1181.17	0.0431078
1182.36	0.0501835
1183.54	0.0542471
1184.73	0.0610453
1185.91	0.0649609
1187.1	0.0694228
1188.28	0.0766853
1189.47	0.0873692
1190.65	0.0986546
1191.84	0.098533
1193.02	0.100513
1194.21	0.108811
1195.39	0.117813
1196.58	0.119469
1197.76	0.114971
1198.95	0.117375
1200.13	0.125489
1201.32	0.133438
1202.5	0.140684
1203.69	0.139793
1204.87	0.137008
1206.06	0.134713
1207.24	0.133943
1208.43	0.136014
1209.61	0.142683
1210.8	0.149946
1211.98	0.156052
1213.17	0.158999
1214.35	0.163019
1215.54	0.167832
1216.72	0.172699
1217.91	0.184845
1219.09	0.198234
1220.28	0.199632
1221.46	0.210355
1222.65	0.215243
1223.83	0.233446
1225.02	0.238127
1226.2	0.254787
1227.39	0.270991
1228.57	0.279717
1229.76	0.297413
1230.94	0.311352
1232.13	0.315635
1233.31	0.323623
1234.5	0.33216
1235.68	0.326576
1236.87	0.339743
1238.05	0.354598
1239.24	0.367049
1240.42	0.370726
1241.61	0.370512
1242.79	0.373076
1243.98	0.366307
1245.16	0.359142
1246.35	0.361953
1247.53	0.356923
1248.72	0.367872
1249.9	0.380475
1251.09	0.385596
1252.27	0.394007
1253.46	0.395456
1254.64	0.388425
1255.83	0.390644
1257.01	0.395206
1258.2	0.400017
1259.38	0.398624
1260.57	0.399089
1261.75	0.403714
1262.94	0.400218
1264.12	0.402051
1265.31	0.40806
1266.49	0.40424
1267.68	0.400115
1268.86	0.391861
1270.05	0.380682
1271.23	0.379473
1272.42	0.378559
1273.6	0.3709
1274.79	0.368982
1275.97	0.367034
1277.16	0.369876
1278.34	0.363973
1279.53	0.357897
1280.71	0.354402
1281.9	0.348068
1283.08	0.335642
1284.27	0.329303
1285.45	0.326043
1286.64	0.324656
1287.82	0.333724
1289.01	0.338714
1290.19	0.348586
1291.38	0.348274
1292.56	0.347567
1293.75	0.349994
1294.93	0.356655
1296.12	0.367792
1297.3	0.372269
1298.49	0.369681
1299.67	0.366778
1300.86	0.369175
1302.04	0.370707
1303.23	0.381093
1304.41	0.392623
1305.6	0.39221
1306.78	0.38789
1307.97	0.386942
1309.15	0.393171
1310.34	0.391366
1311.52	0.383669
1312.71	0.372999
1313.89	0.369765
1315.08	0.369089
1316.26	0.367694
1317.45	0.364529
1318.63	0.365769
1319.82	0.359936
1321	0.351221
1322.19	0.348164
1323.37	0.337679
1324.56	0.337432
1325.74	0.330187
1326.93	0.327058
1328.11	0.32985
1329.3	0.335458
1330.48	0.339607
1331.67	0.343294
1332.85	0.35054
1334.04	0.350006
1335.22	0.350118
1336.41	0.349265
1337.59	0.356258
1338.78	0.356497
1339.96	0.356234
1341.15	0.354517
1342.33	0.35438
1343.52	0.352419
1344.7	0.344169
1345.89	0.337173
1347.07	0.329793
1348.26	0.316863
1349.44	0.308679
1350.63	0.306216
1351.81	0.307267
1353	0.308686
1354.18	0.303474
1355.37	0.296856
1356.55	0.291188
1357.74	0.2854
1358.92	0.282776
1360.11	0.276509
1361.29	0.275315
1362.48	0.28221
1363.66	0.285502
1364.85	0.29153
1366.03	0.296642
1367.22	0.293327
1368.4	0.288011
1369.59	0.28417
1370.77	0.279166
1371.96	0.272654
1373.14	0.264362
1374.33	0.263251
1375.51	0.262766
1376.7	0.257867
1377.88	0.2558
1379.07	0.25147
1380.25	0.248661
1381.44	0.247697
1382.62	0.243895
1383.81	0.23739
1384.99	0.233113
1386.18	0.22649
1387.36	0.224175
1388.55	0.228994
1389.73	0.233559
1390.92	0.238133
1392.1	0.246376
1393.29	0.242903
1394.47	0.241394
1395.66	0.234603
1396.84	0.240419
1398.03	0.232399
1399.21	0.23646
1400.4	0.237352
1401.58	0.245647
1402.77	0.254141
1403.95	0.259813
1405.14	0.264635
1406.32	0.264175
1407.51	0.261196
1408.69	0.254273
1409.88	0.250863
1411.06	0.256807
1412.25	0.264101
1413.43	0.259404
1414.62	0.256133
1415.8	0.252055
1416.99	0.248232
1418.17	0.248404
1419.36	0.245427
1420.54	0.247609
1421.73	0.23999
1422.91	0.238017
1424.1	0.247358
1425.28	0.247892
1426.47	0.259265
1427.65	0.268416
1428.84	0.280491
1430.02	0.290925
1431.21	0.305079
1432.39	0.32289
1433.58	0.340076
1434.76	0.357667
1435.95	0.372115
1437.13	0.387777
1438.32	0.408037
1439.5	0.428073
1440.69	0.443334
1441.87	0.463555
1443.06	0.474111
1444.24	0.497703
1445.43	0.512238
1446.61	0.532869
1447.8	0.550485
1448.98	0.568881
1450.17	0.580446
1451.35	0.588704
1452.54	0.595099
1453.72	0.601612
1454.91	0.606314
1456.09	0.604461
1457.28	0.598335
1458.46	0.591414
1459.65	0.588808
1460.83	0.574865
1462.02	0.555624
1463.2	0.535784
1464.39	0.514075
1465.57	0.482302
1466.76	0.458149
1467.94	0.440462
1469.13	0.413477
1470.31	0.389408
1471.5	0.357087
1472.68	0.332874
1473.87	0.309724
1475.05	0.28335
1476.24	0.263476
1477.42	0.244253
1478.61	0.228201
1479.79	0.208824
1480.98	0.191417
1482.16	0.180083
1483.35	0.163401
1484.53	0.149214
1485.72	0.143432
1486.9	0.13711
1488.09	0.13244
1489.27	0.118595
1490.46	0.11304
1491.64	0.109416
1492.83	0.0959411
1494.01	0.0873123
1495.2	0.0810583
1496.38	0.0739484
1497.57	0.0717426
1498.75	0.0712689
1499.94	0.0739827
1501.12	0.0744229
1502.31	0.0713267
1503.49	0.06186
1504.68	0.059735
1505.86	0.058757
1507.05	0.0576496
1508.23	0.0589384
1509.42	0.0683522
1510.6	0.070671
1511.79	0.063656
1512.97	0.0545091
1514.16	0.0508109
1515.34	0.0468831
1516.53	0.0366975
1517.71	0.0332813
1518.9	0.0290883
1520.08	0.0295527
1521.27	0.0314619
1522.45	0.0344986
1523.64	0.0355249
1524.82	0.0338212
1526.01	0.0242141
1527.19	0.0177789
1528.38	0.0196269
1529.56	0.0261484
1530.75	0.026637
1531.93	0.0230483
1533.12	0.0284615
1534.3	0.0295574
1535.49	0.0310347
1536.67	0.0340172
1537.86	0.035421
1539.04	0.0336968
1540.23	0.0304212
1541.41	0.0308925
1542.6	0.0357424
1543.78	0.0372651
1544.97	0.0362229
1546.15	0.0371626
1547.34	0.0380791
1548.52	0.0406393
1549.71	0.0377804
1550.89	0.0339586
1552.08	0.0299254
1553.26	0.0227898
1554.45	0.0177825
1555.63	0.0154677
1556.82	0.016
1558	0.0139545
1559.19	0.0103174
1560.37	0.0100227
1561.56	0.00864852
1562.74	0.00205923
1563.93	-0.00056395
1565.11	-0.000964275
1566.3	0.000810438
1567.48	-0.00046149
1568.67	0.00192939
1569.85	0.00710901
1571.04	0.00904507
1572.22	0.00860323
1573.41	0.00656999
1574.59	0.00498557
1575.78	0.00725944
1576.96	0.00939003
1578.15	0.010489
1579.33	0.0163636
1580.52	0.0195966
1581.7	0.0240578
1582.89	0.0263912
1584.07	0.0300007
1585.26	0.029671
1586.44	0.0286924
1587.63	0.0298412
1588.81	0.0319034
1590	0.0378398
1591.18	0.0439612
1592.37	0.0453436
1593.55	0.0463517
1594.74	0.0510325
1595.92	0.0539236
1597.11	0.0553293
1598.29	0.0553035
1599.48	0.0575509
1600.66	0.0575705
1601.85	0.0614209
1603.03	0.0677936
1604.22	0.0713659
1605.4	0.0730745
1606.59	0.0743245
1607.77	0.0760774
1608.96	0.0818236
1610.14	0.0877776
1611.33	0.0910461
1612.51	0.0917106
1613.7	0.0958829
1614.88	0.0975471
1616.07	0.0979405
1617.25	0.101678
1618.44	0.105707
1619.62	0.103613
1620.81	0.103627
1621.99	0.10767
1623.18	0.111855
1624.36	0.114112
1625.55	0.112645
1626.73	0.108664
1627.92	0.106867
1629.1	0.10954
1630.29	0.116049
1631.47	0.12061
1632.66	0.126959
1633.84	0.124307
1635.03	0.129035
1636.21	0.134035
1637.4	0.138083
1638.58	0.139607
1639.77	0.139412
1640.95	0.141325
1642.14	0.143879
1643.32	0.149379
1644.51	0.150188
1645.69	0.152508
1646.88	0.153527
1648.06	0.154801
1649.25	0.154942
1650.43	0.157493
1651.62	0.155365
1652.8	0.160676
1653.99	0.163572
1655.17	0.165151
1656.36	0.168402
1657.54	0.171436
1658.73	0.175394
1659.91	0.175954
1661.1	0.183267
1662.28	0.18491
1663.47	0.18487
1664.65	0.187397
1665.84	0.187599
1667.02	0.188492
1668.21	0.192075
1669.39	0.19139
1670.58	0.18935
1671.76	0.192447
1672.95	0.195173
1674.13	0.197644
1675.32	0.19849
1676.5	0.200189
1677.69	0.194282
1678.87	0.188856
1680.06	0.189838
1681.24	0.188342
1682.43	0.187017
1683.61	0.190752
1684.8	0.184612
1685.98	0.180538
1687.17	0.180133
1688.35	0.176896
1689.54	0.17321
1690.72	0.168274
1691.91	0.164382
1693.09	0.159198
1694.28	0.160564
1695.46	0.162174
1696.65	0.161244
1697.83	0.160017
1699.02	0.158844
1700.2	0.160317
1701.39	0.164966
1702.57	0.163794
1703.76	0.16179
1704.94	0.15869
1706.13	0.160865
1707.31	0.162372
1708.5	0.162923
1709.68	0.163369
1710.87	0.162773
1712.05	0.156866
1713.24	0.15581
1714.42	0.159477
1715.61	0.155054
1716.79	0.149715
1717.98	0.151232
1719.16	0.152127
1720.35	0.15599
1721.53	0.160372
1722.72	0.156647
1723.9	0.154264
1725.09	0.156339
1726.27	0.155692
1727.46	0.157942
1728.64	0.166509
1729.83	0.163831
1731.01	0.161712
1732.2	0.165368
1733.38	0.165277
1734.57	0.162673
1735.75	0.158776
1736.94	0.152871
1738.12	0.151031
1739.31	0.150893
1740.49	0.144539
1741.68	0.142812
1742.86	0.142173
1744.05	0.136846
1745.23	0.128988
1746.42	0.123944
1747.6	0.121573
1748.79	0.118056
1749.97	0.118538
1751.16	0.115671
1752.34	0.11985
1753.53	0.114211
1754.71	0.112031
1755.9	0.110933
1757.08	0.11465
1758.27	0.108666
1759.45	0.105351
1760.64	0.103576
1761.82	0.1028
1763.01	0.100919
1764.19	0.0994913
1765.38	0.0911013
1766.56	0.0850706
1767.75	0.0853706
1768.93	0.0843331
1770.12	0.0828371
1771.3	0.0769642
1772.49	0.0723179
1773.67	0.0681453
1774.86	0.0683291
1776.04	0.068672
1777.23	0.0618469
1778.41	0.0634085
1779.6	0.0563702
1780.78	0.0535031
1781.97	0.0541755
1783.15	0.0480741
1784.34	0.0420158
1785.52	0.0350471
1786.71	0.032701
1787.89	0.0298589
1789.08	0.0263457
1790.26	0.0210311
1791.45	0.00862017
1792.63	0.00351386
1793.82	-0.00208527
1795	-0.00641209
