405	0.115887
406.185	0.146002
407.37	0.172969
408.555	0.196771
409.74	0.215593
410.925	0.229565
412.11	0.241036
413.295	0.254895
414.48	0.269099
415.665	0.268475
416.85	0.265129
418.035	0.260369
419.22	0.256149
420.405	0.248964
421.59	0.239904
422.775	0.224548
423.96	0.204081
425.145	0.186665
426.33	0.175243
427.515	0.161114
428.7	0.141777
429.885	0.12099
431.07	0.106869
432.255	0.0854593
433.44	0.0711569
434.625	0.0581078
435.81	0.0458084
436.995	0.0377997
438.18	0.0320223
439.365	0.0223247
440.55	0.0104172
441.735	0.00454559
442.92	0.00914945
444.105	0.00857082
445.29	0.000944906
446.475	-0.00837858
447.66	-0.0105657
448.845	-0.00668198
450.03	0.00251325
451.215	0.0153936
452.4	0.0236022
453.585	0.0232946
454.77	0.0304267
455.955	0.046216
457.14	0.0580015
458.325	0.0761569
459.51	0.0997373
460.695	0.124302
461.88	0.149259
463.065	0.178183
464.25	0.212341
465.435	0.250591
466.62	0.296118
467.805	0.342246
468.99	0.389241
470.175	0.426255
471.36	0.470948
472.545	0.520243
473.73	0.571751
474.915	0.617533
476.1	0.66122
477.285	0.704765
478.47	0.740447
479.655	0.771487
480.84	0.800583
482.025	0.82414
483.21	0.843232
484.395	0.854399
485.58	0.858594
486.765	0.85098
487.95	0.839131
489.135	0.825873
490.32	0.806605
491.505	0.781479
492.69	0.755596
493.875	0.721732
495.06	0.683682
496.245	0.64209
497.43	0.606125
498.615	0.573999
499.8	0.536551
500.985	0.494269
502.17	0.452632
503.355	0.41514
504.54	0.381491
505.725	0.350706
506.91	0.323173
508.095	0.296824
509.28	0.269097
510.465	0.25614
511.65	0.22987
512.835	0.207279
514.02	0.193329
515.205	0.181151
516.39	0.168719
517.575	0.161266
518.76	0.160017
519.945	0.159574
521.13	0.157217
522.315	0.150354
523.5	0.150587
524.685	0.148385
525.87	0.148935
527.055	0.148471
528.24	0.144105
529.424	0.14039
530.61	0.140889
531.795	0.149598
532.98	0.160915
534.165	0.167016
535.35	0.175523
536.535	0.183894
537.72	0.175659
538.905	0.168212
540.09	0.172125
541.275	0.182332
542.46	0.185694
543.645	0.187423
544.83	0.183917
546.014	0.180953
547.199	0.182358
548.384	0.182027
549.569	0.177377
550.754	0.171818
551.939	0.163421
553.124	0.169351
554.309	0.16955
555.494	0.165438
556.679	0.16186
557.864	0.160442
559.049	0.163467
560.234	0.16128
561.419	0.15804
562.604	0.156843
563.789	0.157077
564.974	0.16293
566.159	0.158218
567.344	0.15905
568.529	0.154538
569.714	0.160532
570.899	0.154432
572.084	0.147159
573.269	0.140488
574.454	0.133872
575.639	0.137623
576.824	0.14199
578.009	0.136207
579.194	0.127298
580.379	0.119598
581.564	0.10732
582.749	0.0991468
583.934	0.0947645
585.119	0.0960413
586.304	0.0899313
587.489	0.0906552
588.674	0.0889114
589.859	0.088548
591.044	0.0865607
592.229	0.0827997
593.414	0.0787629
594.599	0.0715755
595.784	0.0636143
596.969	0.0628747
598.154	0.0568553
599.339	0.0571519
600.524	0.0600495
601.709	0.0594575
602.894	0.0501066
604.079	0.0396125
605.264	0.0351855
606.449	0.0296282
607.634	0.0266424
608.819	0.0294668
610.004	0.0295482
611.189	0.0271156
612.374	0.0306966
613.559	0.0293652
614.744	0.0192617
615.929	0.0155686
617.114	0.0151388
618.299	0.00870444
619.484	0.00265166
620.669	0.00174408
621.854	0.00759413
623.039	0.0133879
624.224	0.0149129
625.409	0.0157038
626.594	0.010839
627.779	0.00386807
628.964	0.00482712
630.149	0.00456725
631.334	5.40323e-005
632.519	0.00232437
633.704	0.0101329
634.889	0.00620545
636.074	0.00890728
637.259	0.0185365
638.444	0.0225526
639.629	0.0259513
640.814	0.0272951
641.999	0.02636
643.184	0.0293382
644.369	0.0325138
645.554	0.0339864
646.739	0.038049
647.924	0.0403696
649.109	0.04487
650.294	0.0454336
651.479	0.0478109
652.664	0.0473915
653.849	0.0566261
655.034	0.0644949
656.219	0.0714058
657.404	0.0809516
658.589	0.0936391
659.774	0.104584
660.959	0.11915
662.144	0.132151
663.329	0.140004
664.514	0.149762
665.699	0.156872
666.884	0.154566
668.069	0.159964
669.254	0.170602
670.439	0.168062
671.624	0.173223
672.809	0.175006
673.994	0.176489
675.179	0.168137
676.364	0.159308
677.549	0.150592
678.734	0.140167
679.919	0.126832
681.104	0.113913
682.289	0.104082
683.474	0.0943229
684.659	0.0849806
685.844	0.0800404
687.029	0.0674142
688.214	0.051529
689.399	0.0478486
690.584	0.0337352
691.769	0.0283248
692.954	0.0161735
694.139	0.017341
695.324	0.0182478
696.509	0.0119642
697.694	0.00810378
698.879	0.00792425
700.064	0.00974324
701.249	0.0133078
702.434	0.0174163
703.619	0.0186912
704.804	0.0182341
705.989	0.0236477
707.174	0.0247377
708.359	0.0277547
709.544	0.0353987
710.729	0.0362552
711.914	0.0455141
713.099	0.0388333
714.284	0.0295161
715.469	0.0282987
716.654	0.0248741
717.839	0.023986
719.024	0.021705
720.209	0.0173403
721.394	0.0139345
722.579	0.0138378
723.764	0.0150817
724.949	0.0159647
726.134	0.0195044
727.319	0.0188053
728.504	0.0187619
729.689	0.018258
730.874	0.0122472
732.059	0.0150897
733.244	0.022137
734.429	0.0280739
735.614	0.029335
736.799	0.024794
737.984	0.0283844
739.169	0.0356729
740.354	0.0379769
741.539	0.0392312
742.724	0.0387545
743.909	0.0364813
745.094	0.0347937
746.279	0.0310895
747.464	0.0267033
748.649	0.0267289
749.834	0.0284713
751.019	0.0267929
752.204	0.0305626
753.389	0.0273795
754.574	0.0287775
755.759	0.032741
756.944	0.02756
758.129	0.0200228
759.314	0.019314
760.499	0.0175536
761.684	0.0161448
762.869	0.0190354
764.054	0.0182123
765.239	0.0176518
766.424	0.018397
767.609	0.0169888
768.794	0.0166925
769.979	0.0174879
771.164	0.0161395
772.349	0.014401
773.534	0.0131031
774.719	0.0103898
775.904	0.0107768
777.089	0.00903884
778.274	0.0086062
779.459	0.00872084
780.644	0.00770935
781.829	0.00045398
783.014	0.00771466
784.199	0.00937925
785.384	0.00349273
786.569	-0.000156707
787.754	0.00172026
788.939	0.00117447
790.124	0.00285074
791.309	0.0127619
792.494	0.0261121
793.679	0.0404744
794.864	0.0582249
796.049	0.0776355
797.234	0.0973277
798.419	0.121887
799.604	0.149104
800.789	0.176826
801.974	0.197592
803.159	0.229001
804.344	0.266131
805.529	0.296038
806.714	0.322333
807.898	0.352434
809.083	0.374218
810.268	0.392623
811.454	0.407981
812.639	0.41566
813.824	0.421781
815.009	0.430832
816.194	0.435744
817.379	0.437874
818.564	0.441206
819.749	0.443152
820.934	0.446784
822.119	0.456389
823.304	0.46701
824.489	0.478209
825.673	0.495642
826.858	0.51112
828.043	0.539505
829.228	0.567183
830.413	0.599482
831.598	0.641069
832.783	0.683079
833.968	0.717588
835.153	0.760865
836.338	0.798597
837.523	0.834177
838.708	0.867844
839.893	0.901234
841.078	0.922203
842.263	0.93438
843.448	0.942493
844.633	0.948225
845.818	0.945094
847.003	0.931725
848.188	0.914187
849.373	0.893446
850.558	0.870285
851.743	0.846787
852.928	0.816508
854.113	0.777907
855.298	0.743948
856.483	0.712366
857.668	0.674112
858.853	0.622805
860.038	0.590043
861.223	0.561101
862.408	0.531509
863.593	0.499827
864.778	0.470548
865.963	0.442267
867.148	0.416122
868.333	0.386993
869.518	0.356091
870.703	0.327874
871.888	0.306744
873.073	0.287426
874.258	0.269453
875.443	0.255261
876.628	0.243647
877.813	0.23142
878.998	0.225467
880.183	0.221452
881.368	0.215577
882.553	0.214768
883.738	0.217643
884.923	0.221562
886.108	0.225953
887.293	0.236561
888.478	0.245438
889.663	0.257564
890.848	0.271577
892.033	0.287527
893.218	0.296897
894.403	0.314388
895.588	0.333251
896.773	0.347134
897.958	0.35075
899.143	0.364426
900.328	0.387284
901.513	0.406483
902.698	0.42216
903.883	0.439009
905.068	0.452735
906.253	0.462674
907.438	0.475304
908.623	0.484163
909.808	0.487208
910.993	0.493118
912.178	0.496946
913.363	0.496377
914.548	0.491272
915.733	0.484903
916.918	0.476611
918.103	0.460996
919.288	0.442678
920.473	0.42558
921.658	0.407618
922.843	0.390426
924.028	0.373656
925.213	0.356419
926.398	0.334357
927.583	0.315895
928.768	0.296464
929.953	0.272895
931.138	0.253183
932.323	0.239374
933.508	0.227688
934.693	0.217454
935.878	0.208621
937.063	0.196341
938.248	0.180539
939.433	0.174121
940.618	0.165684
941.803	0.155581
942.988	0.152291
944.173	0.147632
945.358	0.14744
946.543	0.149295
947.728	0.149462
948.913	0.152879
950.098	0.153291
951.283	0.156292
952.468	0.162266
953.653	0.16506
954.838	0.172136
956.023	0.185141
957.208	0.195514
958.393	0.203265
959.578	0.213492
960.763	0.218926
961.948	0.222302
963.133	0.228249
964.318	0.230627
965.503	0.229782
966.688	0.230034
967.873	0.232659
969.058	0.235755
970.243	0.232951
971.428	0.22742
972.613	0.226066
973.798	0.22184
974.983	0.213652
976.168	0.209071
977.353	0.204847
978.538	0.199131
979.723	0.194974
980.908	0.189381
982.093	0.179648
983.278	0.172155
984.463	0.170217
985.648	0.16598
986.833	0.160764
988.018	0.160446
989.203	0.164531
990.388	0.162197
991.573	0.163995
992.758	0.159463
993.943	0.151941
995.128	0.14873
996.313	0.148451
997.498	0.1535
998.683	0.156758
999.868	0.158098
1001.05	0.166361
1002.24	0.173119
1003.42	0.17237
1004.61	0.181403
1005.79	0.189355
1006.98	0.197668
1008.16	0.210478
1009.35	0.220877
1010.53	0.235306
1011.72	0.259849
1012.9	0.282111
1014.09	0.300817
1015.27	0.320863
1016.46	0.339662
1017.64	0.361331
1018.83	0.384906
1020.01	0.407772
1021.2	0.436553
1022.38	0.464993
1023.57	0.492384
1024.75	0.523241
1025.94	0.550929
1027.12	0.573366
1028.31	0.600171
1029.49	0.623673
1030.68	0.642141
1031.86	0.661343
1033.05	0.678285
1034.23	0.695042
1035.42	0.71554
1036.6	0.730022
1037.79	0.738567
1038.97	0.748285
1040.16	0.754672
1041.34	0.756049
1042.53	0.754184
1043.71	0.753233
1044.9	0.753457
1046.08	0.752451
1047.27	0.747295
1048.45	0.743216
1049.64	0.736965
1050.82	0.730316
1052.01	0.724746
1053.19	0.714882
1054.38	0.702545
1055.56	0.696726
1056.75	0.685065
1057.93	0.66604
1059.12	0.648547
1060.3	0.637414
1061.49	0.619016
1062.67	0.602775
1063.86	0.585617
1065.04	0.56987
1066.23	0.552191
1067.41	0.537226
1068.6	0.523149
1069.78	0.50752
1070.97	0.491581
1072.15	0.47936
1073.34	0.462873
1074.52	0.44815
1075.71	0.446995
1076.89	0.440594
1078.08	0.428333
1079.26	0.420943
1080.45	0.412492
1081.63	0.404945
1082.82	0.400898
1084	0.404726
1085.19	0.402686
1086.37	0.391611
1087.56	0.385635
1088.74	0.379976
1089.93	0.372082
1091.11	0.372061
1092.3	0.37684
1093.48	0.369782
1094.67	0.368593
1095.85	0.370116
1097.04	0.366797
1098.22	0.368887
1099.41	0.365971
1100.59	0.366391
1101.78	0.36123
1102.96	0.35327
1104.15	0.356893
1105.33	0.352868
1106.52	0.344869
1107.7	0.336624
1108.89	0.323055
1110.07	0.30472
1111.26	0.287681
1112.44	0.271375
1113.63	0.251944
1114.81	0.231948
1116	0.21085
1117.18	0.199146
1118.37	0.167045
1119.55	0.140178
1120.74	0.123442
1121.92	0.101777
1123.11	0.0777251
1124.29	0.0650004
1125.48	0.0526652
1126.66	0.0462839
1127.85	0.0370637
1129.03	0.0325252
1130.22	0.026755
1131.4	0.0270837
1132.59	0.0235815
1133.77	0.0205014
1134.96	0.0163733
1136.14	0.019863
1137.33	0.0191754
1138.51	0.025371
1139.7	0.0275055
1140.88	0.0311676
1142.07	0.0309942
1143.25	0.0274308
1144.44	0.0254873
1145.62	0.0242598
1146.81	0.0212091
1147.99	0.0205456
1149.18	0.0137514
1150.36	0.016719
1151.55	0.0144225
1152.73	0.0109335
1153.92	0.0115321
1155.1	0.00969922
1156.29	-0.000527975
1157.47	-0.00525636
1158.66	-0.00220106
1159.84	0.00102899
1161.03	0.00503355
1162.21	0.00594091
1163.4	0.00637766
1164.58	0.0053087
1165.77	0.00321795
1166.95	0.00601197
1168.14	0.00922044
1169.32	0.013848
1170.51	0.0169716
1171.69	0.0182632
1172.88	0.0232163
1174.06	0.0339281
1175.25	0.0431153
1176.43	0.0367799
1177.62	0.0364719
1178.8	0.0383801
1179.99	0.0388325
1181.17	0.0426566
1182.36	0.0485797
1183.54	0.054068
1184.73	0.0598485
1185.91	0.0632057
1187.1	0.0639199
1188.28	0.0654816
1189.47	0.0714241
1190.65	0.072855
1191.84	0.0725063
1193.02	0.0760008
1194.21	0.0823725
1195.39	0.0869112
1196.58	0.0925536
1197.76	0.0997027
1198.95	0.102538
1200.13	0.103658
1201.32	0.105527
1202.5	0.105214
1203.69	0.105313
1204.87	0.107751
1206.06	0.109251
1207.24	0.112959
1208.43	0.116078
1209.61	0.114473
1210.8	0.121421
1211.98	0.129199
1213.17	0.133184
1214.35	0.13876
1215.54	0.143603
1216.72	0.152176
1217.91	0.164813
1219.09	0.171769
1220.28	0.179994
1221.46	0.191683
1222.65	0.203975
1223.83	0.214427
1225.02	0.219146
1226.2	0.233824
1227.39	0.249789
1228.57	0.256519
1229.76	0.264605
1230.94	0.27465
1232.13	0.275012
1233.31	0.278224
1234.5	0.284616
1235.68	0.279709
1236.87	0.284848
1238.05	0.284755
1239.24	0.281626
1240.42	0.284207
1241.61	0.28524
1242.79	0.292022
1243.98	0.290289
1245.16	0.282507
1246.35	0.282995
1247.53	0.284625
1248.72	0.281247
1249.9	0.287608
1251.09	0.290252
1252.27	0.295947
1253.46	0.301894
1254.64	0.304211
1255.83	0.304349
1257.01	0.304266
1258.2	0.303895
1259.38	0.30715
1260.57	0.307871
1261.75	0.307932
1262.94	0.306794
1264.12	0.301018
1265.31	0.297972
1266.49	0.293909
1267.68	0.287163
1268.86	0.277639
1270.05	0.274053
1271.23	0.272243
1272.42	0.274754
1273.6	0.277799
1274.79	0.274075
1275.97	0.264769
1277.16	0.255711
1278.34	0.248903
1279.53	0.246753
1280.71	0.249507
1281.9	0.246441
1283.08	0.24805
1284.27	0.246099
1285.45	0.253223
1286.64	0.259704
1287.82	0.253111
1289.01	0.252529
1290.19	0.245753
1291.38	0.245038
1292.56	0.252716
1293.75	0.26057
1294.93	0.260917
1296.12	0.263773
1297.3	0.262706
1298.49	0.264554
1299.67	0.267558
1300.86	0.270213
1302.04	0.275357
1303.23	0.271696
1304.41	0.270497
1305.6	0.272622
1306.78	0.270877
1307.97	0.271816
1309.15	0.273073
1310.34	0.269328
1311.52	0.263
1312.71	0.260199
1313.89	0.259458
1315.08	0.253606
1316.26	0.249505
1317.45	0.247527
1318.63	0.243714
1319.82	0.240771
1321	0.238627
1322.19	0.234435
1323.37	0.229036
1324.56	0.228403
1325.74	0.223326
1326.93	0.222359
1328.11	0.222369
1329.3	0.219363
1330.48	0.219156
1331.67	0.220283
1332.85	0.227017
1334.04	0.225089
1335.22	0.218248
1336.41	0.211643
1337.59	0.213134
1338.78	0.214052
1339.96	0.207939
1341.15	0.206224
1342.33	0.206579
1343.52	0.202896
1344.7	0.200961
1345.89	0.204653
1347.07	0.20637
1348.26	0.204838
1349.44	0.200399
1350.63	0.194026
1351.81	0.193712
1353	0.199444
1354.18	0.202835
1355.37	0.199591
1356.55	0.207147
1357.74	0.215647
1358.92	0.209366
1360.11	0.210002
1361.29	0.213793
1362.48	0.212474
1363.66	0.215573
1364.85	0.215198
1366.03	0.220125
1367.22	0.224082
1368.4	0.230026
1369.59	0.2271
1370.77	0.223646
1371.96	0.216254
1373.14	0.210703
1374.33	0.203095
1375.51	0.200143
1376.7	0.201953
1377.88	0.200666
1379.07	0.197922
1380.25	0.197096
1381.44	0.197418
1382.62	0.191517
1383.81	0.183827
1384.99	0.176597
1386.18	0.174042
1387.36	0.176224
1388.55	0.179594
1389.73	0.182723
1390.92	0.181956
1392.1	0.186209
1393.29	0.186535
1394.47	0.18145
1395.66	0.176843
1396.84	0.1755
1398.03	0.169927
1399.21	0.169092
1400.4	0.174884
1401.58	0.182791
1402.77	0.18735
1403.95	0.191207
1405.14	0.187339
1406.32	0.187517
1407.51	0.191601
1408.69	0.193468
1409.88	0.192567
1411.06	0.193332
1412.25	0.192916
1413.43	0.195339
1414.62	0.198006
1415.8	0.198559
1416.99	0.194787
1418.17	0.184676
1419.36	0.183397
1420.54	0.177364
1421.73	0.179085
1422.91	0.180721
1424.1	0.179579
1425.28	0.179115
1426.47	0.17856
1427.65	0.179563
1428.84	0.184112
1430.02	0.192973
1431.21	0.200783
1432.39	0.205445
1433.58	0.2169
1434.76	0.231596
1435.95	0.244803
1437.13	0.258036
1438.32	0.271041
1439.5	0.286719
1440.69	0.302599
1441.87	0.317256
1443.06	0.331203
1444.24	0.350203
1445.43	0.377603
1446.61	0.394968
1447.8	0.410384
1448.98	0.431997
1450.17	0.447318
1451.35	0.454259
1452.54	0.467293
1453.72	0.476524
1454.91	0.484516
1456.09	0.490325
1457.28	0.494381
1458.46	0.494675
1459.65	0.492812
1460.83	0.48815
1462.02	0.474461
1463.2	0.461956
1464.39	0.443713
1465.57	0.417957
1466.76	0.397132
1467.94	0.380568
1469.13	0.366705
1470.31	0.342203
1471.5	0.319643
1472.68	0.293222
1473.87	0.269473
1475.05	0.248439
1476.24	0.233206
1477.42	0.214894
1478.61	0.196871
1479.79	0.180918
1480.98	0.165184
1482.16	0.155854
1483.35	0.145437
1484.53	0.131401
1485.72	0.117084
1486.9	0.11264
1488.09	0.106074
1489.27	0.105051
1490.46	0.0957659
1491.64	0.0869019
1492.83	0.0783941
1494.01	0.0753532
1495.2	0.0718223
1496.38	0.0658469
1497.57	0.0629802
1498.75	0.0608857
1499.94	0.0617071
1501.12	0.0629134
1502.31	0.0594578
1503.49	0.0551558
1504.68	0.0529595
1505.86	0.0539182
1507.05	0.0542182
1508.23	0.0538303
1509.42	0.0539266
1510.6	0.0545969
1511.79	0.052255
1512.97	0.0507797
1514.16	0.0541436
1515.34	0.0559569
1516.53	0.0502971
1517.71	0.0474522
1518.9	0.0516067
1520.08	0.0516425
1521.27	0.0494655
1522.45	0.0459992
1523.64	0.0463858
1524.82	0.0467178
1526.01	0.0448268
1527.19	0.0408047
1528.38	0.0437787
1529.56	0.0438137
1530.75	0.0365383
1531.93	0.034676
1533.12	0.0346574
1534.3	0.0357487
1535.49	0.030765
1536.67	0.0282214
1537.86	0.0261153
1539.04	0.0242551
1540.23	0.0206475
1541.41	0.0177793
1542.6	0.0153613
1543.78	0.0151771
1544.97	0.00931827
1546.15	0.0122633
1547.34	0.0100087
1548.52	0.0052037
1549.71	0.00356325
1550.89	0.00103159
1552.08	-0.000375789
1553.26	-0.000993394
1554.45	-0.000439035
1555.63	-3.01989e-005
1556.82	0.000995022
1558	0.00354183
1559.19	0.00616418
1560.37	0.00815752
1561.56	0.0103777
1562.74	0.00688177
1563.93	0.00842742
1565.11	0.0126338
1566.3	0.0129789
1567.48	0.0114884
1568.67	0.0123928
1569.85	0.0135449
1571.04	0.0149961
1572.22	0.0160314
1573.41	0.0143698
1574.59	0.0132317
1575.78	0.012538
1576.96	0.0115068
1578.15	0.0110213
1579.33	0.0119537
1580.52	0.0108127
1581.7	0.0075769
1582.89	0.00623279
1584.07	0.00761107
1585.26	0.00695352
1586.44	0.00580235
1587.63	0.00450117
1588.81	0.00344063
1590	0.00307009
1591.18	0.00402463
1592.37	0.00446148
1593.55	0.00375067
1594.74	0.00451267
1595.92	0.00487263
1597.11	0.00618513
1598.29	0.0051671
1599.48	0.00293382
1600.66	0.00524252
1601.85	0.00584524
1603.03	0.00655832
1604.22	0.006924
1605.4	0.00858058
1606.59	0.00914682
1607.77	0.00737743
1608.96	0.0059783
1610.14	0.00630294
1611.33	0.00603133
1612.51	0.00782589
1613.7	0.00845564
1614.88	0.01038
1616.07	0.0145856
1617.25	0.0126904
1618.44	0.0110194
1619.62	0.00954872
1620.81	0.00634132
1621.99	0.0033118
1623.18	0.00574909
1624.36	0.00768462
1625.55	0.00933223
1626.73	0.00595448
1627.92	0.00420184
1629.1	-0.00257751
1630.29	-0.00372687
1631.47	-0.00206501
1632.66	-0.00153566
1633.84	0.00279202
1635.03	0.00466321
1636.21	0.00734425
1637.4	0.00909252
1638.58	0.00511263
1639.77	0.00557218
1640.95	0.00745695
1642.14	0.01034
1643.32	0.0150803
1644.51	0.0165965
1645.69	0.0164722
1646.88	0.0136296
1648.06	0.0113459
1649.25	0.0117767
1650.43	0.0101731
1651.62	0.0108447
1652.8	0.00960292
1653.99	0.0123247
1655.17	0.0169239
1656.36	0.013906
1657.54	0.0107187
1658.73	0.00834232
1659.91	0.00590141
1661.1	0.00740576
1662.28	0.0138904
1663.47	0.0146971
1664.65	0.0149848
1665.84	0.0136774
1667.02	0.0125794
1668.21	0.0113828
1669.39	0.0114411
1670.58	0.012878
1671.76	0.013906
1672.95	0.0161781
1674.13	0.0185698
1675.32	0.0178106
1676.5	0.0171332
1677.69	0.0176296
1678.87	0.0129771
1680.06	0.0147014
1681.24	0.0130237
1682.43	0.010371
1683.61	0.0112882
1684.8	0.010285
1685.98	0.00870661
1687.17	0.00695186
1688.35	0.00739556
1689.54	0.0055756
1690.72	0.00425305
1691.91	0.0043872
1693.09	0.00658407
1694.28	0.00623495
1695.46	0.00833373
1696.65	0.00549515
1697.83	0.0068652
1699.02	0.00821089
1700.2	0.00713576
1701.39	0.00390073
1702.57	0.00807512
1703.76	0.00644905
1704.94	0.00286962
1706.13	0.00315614
1707.31	0.00277141
1708.5	0.00480556
1709.68	0.00564098
1710.87	0.00604748
1712.05	0.00588939
1713.24	0.00758322
1714.42	0.0105241
1715.61	0.0141237
1716.79	0.017891
1717.98	0.0214929
1719.16	0.021464
1720.35	0.0197304
1721.53	0.0190512
1722.72	0.0216714
1723.9	0.0228118
1725.09	0.0186712
1726.27	0.0171805
1727.46	0.0170761
1728.64	0.0165622
1729.83	0.0193656
1731.01	0.0192396
1732.2	0.0166912
1733.38	0.0164208
1734.57	0.0157631
1735.75	0.0148743
1736.94	0.0196324
1738.12	0.0205151
1739.31	0.0163545
1740.49	0.0159652
1741.68	0.0140812
1742.86	0.0155515
1744.05	0.0145857
1745.23	0.0160574
1746.42	0.0150443
1747.6	0.0133403
1748.79	0.0124408
1749.97	0.0109683
1751.16	0.0105954
1752.34	0.00970751
1753.53	0.00908529
1754.71	0.00647205
1755.9	0.00951198
1757.08	0.0124149
1758.27	0.0171757
1759.45	0.0162442
1760.64	0.01569
1761.82	0.0137402
1763.01	0.0111916
1764.19	0.00767859
1765.38	0.005293
1766.56	0.00458936
1767.75	0.00786739
1768.93	0.0104853
1770.12	0.010247
1771.3	0.00933523
1772.49	0.00756672
1773.67	0.00559944
1774.86	0.00342236
1776.04	0.00326106
1777.23	0.00119793
1778.41	0.00178165
1779.6	0.00435525
1780.78	0.0085685
1781.97	0.0100301
1783.15	0.01023
1784.34	0.00871764
1785.52	0.00677384
1786.71	0.0071566
1787.89	0.00735562
1789.08	0.00426169
1790.26	0.00201489
1791.45	0.00153886
1792.63	-0.00013716
1793.82	-0.00109061
1795	-0.00442124
