405	0.384812
406.185	0.394191
407.37	0.397722
408.555	0.400004
409.74	0.399132
410.925	0.400949
412.11	0.403245
413.295	0.406635
414.48	0.415144
415.665	0.415099
416.85	0.408578
418.035	0.406179
419.22	0.390444
420.405	0.377784
421.59	0.358495
422.775	0.348212
423.96	0.339457
425.145	0.318566
426.33	0.289538
427.515	0.262813
428.7	0.234876
429.885	0.214123
431.07	0.19695
432.255	0.165536
433.44	0.129535
434.625	0.101718
435.81	0.0813334
436.995	0.0632936
438.18	0.0495802
439.365	0.0386302
440.55	0.0158948
441.735	0.00510841
442.92	-0.00525585
444.105	-0.0105657
445.29	-0.000236401
446.475	-0.000943484
447.66	0.00818624
448.845	0.0201707
450.03	0.0168369
451.215	0.01196
452.4	0.0286913
453.585	0.0385672
454.77	0.0489483
455.955	0.0615816
457.14	0.0668557
458.325	0.0898436
459.51	0.113579
460.695	0.134932
461.88	0.153171
463.065	0.17293
464.25	0.201657
465.435	0.245151
466.62	0.303761
467.805	0.341918
468.99	0.39071
470.175	0.442651
471.36	0.486756
472.545	0.538506
473.73	0.599913
474.915	0.661047
476.1	0.71921
477.285	0.767041
478.47	0.797896
479.655	0.831105
480.84	0.859776
482.025	0.893069
483.21	0.916491
484.395	0.922427
485.58	0.911003
486.765	0.89664
487.95	0.876028
489.135	0.854541
490.32	0.83631
491.505	0.811947
492.69	0.772043
493.875	0.720912
495.06	0.681095
496.245	0.634951
497.43	0.581311
498.615	0.548087
499.8	0.512574
500.985	0.473541
502.17	0.43046
503.355	0.385553
504.54	0.34638
505.725	0.315796
506.91	0.288244
508.095	0.268798
509.28	0.253783
510.465	0.219452
511.65	0.195273
512.835	0.180133
514.02	0.164808
515.205	0.14883
516.39	0.136733
517.575	0.125867
518.76	0.116868
519.945	0.113577
521.13	0.10796
522.315	0.108639
523.5	0.112715
524.685	0.107974
525.87	0.104297
527.055	0.100705
528.24	0.093343
529.424	0.103677
530.61	0.114498
531.795	0.11557
532.98	0.110753
534.165	0.104865
535.35	0.111422
536.535	0.125007
537.72	0.133954
538.905	0.138361
540.09	0.133675
541.275	0.136092
542.46	0.141785
543.645	0.148661
544.83	0.152563
546.014	0.147983
547.199	0.14297
548.384	0.143302
549.569	0.14043
550.754	0.141255
551.939	0.149112
553.124	0.156161
554.309	0.145877
555.494	0.132712
556.679	0.122854
557.864	0.118097
559.049	0.121735
560.234	0.121982
561.419	0.117584
562.604	0.109805
563.789	0.102699
564.974	0.107588
566.159	0.109067
567.344	0.101417
568.529	0.0965848
569.714	0.0929396
570.899	0.0864431
572.084	0.0813978
573.269	0.0845946
574.454	0.0875784
575.639	0.087506
576.824	0.0892106
578.009	0.0848158
579.194	0.069267
580.379	0.0589212
581.564	0.0569386
582.749	0.0536216
583.934	0.0462806
585.119	0.0437735
586.304	0.0519312
587.489	0.042595
588.674	0.0333083
589.859	0.029288
591.044	0.0242297
592.229	0.0196522
593.414	0.0156277
594.599	0.0116026
595.784	0.00794295
596.969	0.00288057
598.154	0.00983292
599.339	0.0159806
600.524	0.0168839
601.709	0.0165263
602.894	0.00929837
604.079	0.00661832
605.264	0.00567424
606.449	0.0117072
607.634	0.0166159
608.819	0.0140202
610.004	0.0145047
611.189	0.0196508
612.374	0.0185585
613.559	0.01901
614.744	0.0224152
615.929	0.0316793
617.114	0.0346723
618.299	0.0327409
619.484	0.0210772
620.669	0.0134177
621.854	0.0136832
623.039	0.0220063
624.224	0.0174798
625.409	0.00454305
626.594	-0.00104106
627.779	0.00316839
628.964	0.00808179
630.149	0.00881623
631.334	0.0134812
632.519	0.0157007
633.704	0.0157062
634.889	0.00586507
636.074	0.0121094
637.259	0.0156919
638.444	0.0229618
639.629	0.0235147
640.814	0.0355404
641.999	0.0460045
643.184	0.0524343
644.369	0.0644249
645.554	0.080238
646.739	0.0902599
647.924	0.0920492
649.109	0.0928263
650.294	0.0984151
651.479	0.103055
652.664	0.106765
653.849	0.110967
655.034	0.10491
656.219	0.117907
657.404	0.125099
658.589	0.142953
659.774	0.150391
660.959	0.157029
662.144	0.169646
663.329	0.175999
664.514	0.174999
665.699	0.177893
666.884	0.189435
668.069	0.196924
669.254	0.197233
670.439	0.205044
671.624	0.224532
672.809	0.221726
673.994	0.223875
675.179	0.218066
676.364	0.217297
677.549	0.214743
678.734	0.208371
679.919	0.197271
681.104	0.182082
682.289	0.169664
683.474	0.15986
684.659	0.143737
685.844	0.130646
687.029	0.135252
688.214	0.129123
689.399	0.114363
690.584	0.0867073
691.769	0.0783807
692.954	0.0706255
694.139	0.0637503
695.324	0.0515691
696.509	0.0526827
697.694	0.0524751
698.879	0.0437919
700.064	0.0390999
701.249	0.0361762
702.434	0.0320178
703.619	0.0369278
704.804	0.0394844
705.989	0.0214354
707.174	0.011782
708.359	0.0115526
709.544	0.0069146
710.729	0.0151236
711.914	0.00686719
713.099	0.00388832
714.284	0.0128467
715.469	0.0060357
716.654	0.00321736
717.839	0.00643963
719.024	0.0026667
720.209	0.00357802
721.394	0.0114819
722.579	0.0132133
723.764	0.0114328
724.949	0.0162397
726.134	0.0244085
727.319	0.0344919
728.504	0.04023
729.689	0.0405673
730.874	0.0487465
732.059	0.0471579
733.244	0.0369903
734.429	0.0443005
735.614	0.0413554
736.799	0.0324181
737.984	0.0365453
739.169	0.0372156
740.354	0.0370035
741.539	0.0430999
742.724	0.0463362
743.909	0.0427013
745.094	0.0405983
746.279	0.0392656
747.464	0.0345352
748.649	0.0361928
749.834	0.0404647
751.019	0.0477771
752.204	0.0586156
753.389	0.0420876
754.574	0.0461293
755.759	0.0399655
756.944	0.0381724
758.129	0.0426479
759.314	0.0375929
760.499	0.019667
761.684	0.0185165
762.869	0.021049
764.054	0.0182485
765.239	0.0266324
766.424	0.0364586
767.609	0.0385085
768.794	0.0402819
769.979	0.0392441
771.164	0.0395474
772.349	0.0407114
773.534	0.042981
774.719	0.0541887
775.904	0.0652954
777.089	0.0550134
778.274	0.0517589
779.459	0.0545445
780.644	0.0382403
781.829	0.0495025
783.014	0.0453615
784.199	0.0328094
785.384	0.0214797
786.569	0.0108174
787.754	0.00642861
788.939	-0.002703
790.124	-0.00265398
791.309	0.0100826
792.494	0.0168881
793.679	0.015175
794.864	0.0208653
796.049	0.0439652
797.234	0.069603
798.419	0.102388
799.604	0.136378
800.789	0.16089
801.974	0.195486
803.159	0.224661
804.344	0.258186
805.529	0.286492
806.714	0.314759
807.898	0.3524
809.083	0.375495
810.268	0.394246
811.454	0.418729
812.639	0.441541
813.824	0.453378
815.009	0.460741
816.194	0.468375
817.379	0.469712
818.564	0.464548
819.749	0.45905
820.934	0.456781
822.119	0.465376
823.304	0.484623
824.489	0.502988
825.673	0.529358
826.858	0.544933
828.043	0.573087
829.228	0.599861
830.413	0.638065
831.598	0.669345
832.783	0.70911
833.968	0.740593
835.153	0.776009
836.338	0.812365
837.523	0.85331
838.708	0.890012
839.893	0.919064
841.078	0.936945
842.263	0.948225
843.448	0.946643
844.633	0.936486
845.818	0.919345
847.003	0.903587
848.188	0.889459
849.373	0.872412
850.558	0.854734
851.743	0.832043
852.928	0.80911
854.113	0.781487
855.298	0.754324
856.483	0.706006
857.668	0.659209
858.853	0.62185
860.038	0.580241
861.223	0.546083
862.408	0.510499
863.593	0.481923
864.778	0.460144
865.963	0.421998
867.148	0.392713
868.333	0.358987
869.518	0.33077
870.703	0.296716
871.888	0.266093
873.073	0.239604
874.258	0.225376
875.443	0.217807
876.628	0.209478
877.813	0.196556
878.998	0.176919
880.183	0.158948
881.368	0.153278
882.553	0.1528
883.738	0.15275
884.923	0.157472
886.108	0.156622
887.293	0.154054
888.478	0.153129
889.663	0.169521
890.848	0.183673
892.033	0.198178
893.218	0.216748
894.403	0.230491
895.588	0.248424
896.773	0.266963
897.958	0.296582
899.143	0.323138
900.328	0.336653
901.513	0.344872
902.698	0.347459
903.883	0.362817
905.068	0.386863
906.253	0.411066
907.438	0.418319
908.623	0.42053
909.808	0.420942
910.993	0.414844
912.178	0.412582
913.363	0.411734
914.548	0.410974
915.733	0.408742
916.918	0.398435
918.103	0.392427
919.288	0.394398
920.473	0.394183
921.658	0.386964
922.843	0.366309
924.028	0.341475
925.213	0.31743
926.398	0.294397
927.583	0.269141
928.768	0.244446
929.953	0.21986
931.138	0.192958
932.323	0.160046
933.508	0.137664
934.693	0.12043
935.878	0.118053
937.063	0.0974314
938.248	0.0973758
939.433	0.0883898
940.618	0.0790282
941.803	0.0807232
942.988	0.0788043
944.173	0.0888924
945.358	0.0979632
946.543	0.095992
947.728	0.0930215
948.913	0.0997026
950.098	0.110061
951.283	0.117579
952.468	0.136431
953.653	0.139085
954.838	0.146541
956.023	0.139575
957.208	0.132206
958.393	0.145269
959.578	0.15924
960.763	0.172574
961.948	0.181182
963.133	0.181067
964.318	0.191458
965.503	0.213109
966.688	0.230204
967.873	0.237334
969.058	0.237374
970.243	0.231079
971.428	0.220852
972.613	0.220299
973.798	0.224418
974.983	0.232405
976.168	0.227724
977.353	0.201868
978.538	0.178781
979.723	0.166672
980.908	0.153685
982.093	0.160044
983.278	0.15575
984.463	0.151514
985.648	0.143562
986.833	0.150957
988.018	0.157832
989.203	0.157726
990.388	0.165547
991.573	0.157493
992.758	0.154767
993.943	0.150042
995.128	0.148046
996.313	0.167083
997.498	0.159508
998.683	0.180539
999.868	0.187366
1001.05	0.186456
1002.24	0.189331
1003.42	0.196085
1004.61	0.20176
1005.79	0.211361
1006.98	0.219351
1008.16	0.217347
1009.35	0.226646
1010.53	0.249311
1011.72	0.267535
1012.9	0.296542
1014.09	0.308992
1015.27	0.330582
1016.46	0.349111
1017.64	0.362413
1018.83	0.383484
1020.01	0.403896
1021.2	0.430417
1022.38	0.453861
1023.57	0.47736
1024.75	0.505174
1025.94	0.540823
1027.12	0.567626
1028.31	0.582132
1029.49	0.606795
1030.68	0.634394
1031.86	0.660872
1033.05	0.681854
1034.23	0.694058
1035.42	0.709862
1036.6	0.722481
1037.79	0.728356
1038.97	0.732516
1040.16	0.743086
1041.34	0.751557
1042.53	0.751615
1043.71	0.754329
1044.9	0.751181
1046.08	0.75806
1047.27	0.763761
1048.45	0.757749
1049.64	0.747304
1050.82	0.742536
1052.01	0.730685
1053.19	0.714318
1054.38	0.700686
1055.56	0.690735
1056.75	0.680831
1057.93	0.662115
1059.12	0.639367
1060.3	0.628249
1061.49	0.611562
1062.67	0.595594
1063.86	0.578993
1065.04	0.555661
1066.23	0.532957
1067.41	0.516924
1068.6	0.497629
1069.78	0.48608
1070.97	0.470984
1072.15	0.457761
1073.34	0.448516
1074.52	0.441486
1075.71	0.444232
1076.89	0.433197
1078.08	0.421681
1079.26	0.404596
1080.45	0.402876
1081.63	0.38856
1082.82	0.374372
1084	0.365605
1085.19	0.363373
1086.37	0.358013
1087.56	0.352761
1088.74	0.355977
1089.93	0.344129
1091.11	0.347507
1092.3	0.352086
1093.48	0.340989
1094.67	0.34431
1095.85	0.339102
1097.04	0.3451
1098.22	0.342885
1099.41	0.360384
1100.59	0.379991
1101.78	0.373813
1102.96	0.372492
1104.15	0.362403
1105.33	0.35825
1106.52	0.356985
1107.7	0.355017
1108.89	0.337054
1110.07	0.312368
1111.26	0.289997
1112.44	0.274118
1113.63	0.260171
1114.81	0.246704
1116	0.21996
1117.18	0.179081
1118.37	0.146832
1119.55	0.133683
1120.74	0.108762
1121.92	0.100805
1123.11	0.0865768
1124.29	0.0781968
1125.48	0.0641419
1126.66	0.0580192
1127.85	0.0541836
1129.03	0.0539711
1130.22	0.0565548
1131.4	0.0591647
1132.59	0.0469973
1133.77	0.0537927
1134.96	0.0577463
1136.14	0.0449914
1137.33	0.0457721
1138.51	0.0557014
1139.7	0.056959
1140.88	0.0550319
1142.07	0.04186
1143.25	0.0439665
1144.44	0.0407477
1145.62	0.0364001
1146.81	0.0329483
1147.99	0.0211327
1149.18	0.0208405
1150.36	0.024067
1151.55	0.0180479
1152.73	0.0165222
1153.92	0.0177609
1155.1	0.0150506
1156.29	0.0104001
1157.47	0.00173519
1158.66	0.00884866
1159.84	0.0110298
1161.03	0.0114625
1162.21	0.00681423
1163.4	0.0114497
1164.58	0.00972526
1165.77	0.00785757
1166.95	0.000109291
1168.14	0.00180676
1169.32	0.00289938
1170.51	0.00795967
1171.69	0.0170374
1172.88	0.0191093
1174.06	0.0173545
1175.25	0.0187389
1176.43	0.0196888
1177.62	0.020725
1178.8	0.0212732
1179.99	0.0243417
1181.17	0.0234834
1182.36	0.0282308
1183.54	0.0367439
1184.73	0.0436256
1185.91	0.0426246
1187.1	0.0439061
1188.28	0.0473272
1189.47	0.0466555
1190.65	0.0456623
1191.84	0.0456754
1193.02	0.0474428
1194.21	0.0519806
1195.39	0.0508277
1196.58	0.049059
1197.76	0.0528924
1198.95	0.0565087
1200.13	0.0661292
1201.32	0.0757579
1202.5	0.0770022
1203.69	0.0792026
1204.87	0.0813727
1206.06	0.0773297
1207.24	0.0765263
1208.43	0.0815962
1209.61	0.0927685
1210.8	0.0933411
1211.98	0.100111
1213.17	0.114796
1214.35	0.120189
1215.54	0.134515
1216.72	0.142002
1217.91	0.138601
1219.09	0.134229
1220.28	0.134072
1221.46	0.140715
1222.65	0.138531
1223.83	0.145766
1225.02	0.151019
1226.2	0.148665
1227.39	0.155332
1228.57	0.170171
1229.76	0.171851
1230.94	0.179628
1232.13	0.190885
1233.31	0.182009
1234.5	0.189701
1235.68	0.193317
1236.87	0.193567
1238.05	0.206435
1239.24	0.214663
1240.42	0.224425
1241.61	0.230693
1242.79	0.237224
1243.98	0.235424
1245.16	0.23564
1246.35	0.232717
1247.53	0.231915
1248.72	0.233814
1249.9	0.226152
1251.09	0.225201
1252.27	0.224853
1253.46	0.217245
1254.64	0.217236
1255.83	0.215602
1257.01	0.212431
1258.2	0.217927
1259.38	0.218176
1260.57	0.225516
1261.75	0.23131
1262.94	0.23004
1264.12	0.236032
1265.31	0.23805
1266.49	0.235773
1267.68	0.243449
1268.86	0.244461
1270.05	0.247825
1271.23	0.257291
1272.42	0.253639
1273.6	0.261109
1274.79	0.257734
1275.97	0.254271
1277.16	0.249112
1278.34	0.247507
1279.53	0.239852
1280.71	0.238719
1281.9	0.22865
1283.08	0.22449
1284.27	0.22362
1285.45	0.209192
1286.64	0.209764
1287.82	0.207917
1289.01	0.208884
1290.19	0.207882
1291.38	0.198875
1292.56	0.207444
1293.75	0.211889
1294.93	0.205741
1296.12	0.205468
1297.3	0.216977
1298.49	0.211749
1299.67	0.20964
1300.86	0.21262
1302.04	0.218492
1303.23	0.222467
1304.41	0.218699
1305.6	0.216638
1306.78	0.218752
1307.97	0.224993
1309.15	0.224615
1310.34	0.221217
1311.52	0.223624
1312.71	0.228454
1313.89	0.230466
1315.08	0.237429
1316.26	0.243133
1317.45	0.247896
1318.63	0.25192
1319.82	0.251078
1321	0.24882
1322.19	0.249207
1323.37	0.247871
1324.56	0.244866
1325.74	0.24113
1326.93	0.238084
1328.11	0.236571
1329.3	0.224661
1330.48	0.220968
1331.67	0.213761
1332.85	0.200663
1334.04	0.198759
1335.22	0.189649
1336.41	0.183234
1337.59	0.179418
1338.78	0.180046
1339.96	0.181695
1341.15	0.185902
1342.33	0.183144
1343.52	0.182935
1344.7	0.189111
1345.89	0.195422
1347.07	0.202758
1348.26	0.201863
1349.44	0.202782
1350.63	0.203631
1351.81	0.204942
1353	0.203649
1354.18	0.209346
1355.37	0.212321
1356.55	0.212706
1357.74	0.205375
1358.92	0.200076
1360.11	0.199654
1361.29	0.192988
1362.48	0.189898
1363.66	0.185751
1364.85	0.192764
1366.03	0.192932
1367.22	0.186229
1368.4	0.184846
1369.59	0.181725
1370.77	0.181444
1371.96	0.175846
1373.14	0.178521
1374.33	0.178433
1375.51	0.170723
1376.7	0.165529
1377.88	0.162565
1379.07	0.161287
1380.25	0.161779
1381.44	0.156529
1382.62	0.149508
1383.81	0.149704
1384.99	0.150362
1386.18	0.147895
1387.36	0.152789
1388.55	0.158838
1389.73	0.151311
1390.92	0.136801
1392.1	0.14301
1393.29	0.1493
1394.47	0.158842
1395.66	0.155406
1396.84	0.150181
1398.03	0.150674
1399.21	0.151995
1400.4	0.151607
1401.58	0.148785
1402.77	0.147456
1403.95	0.154706
1405.14	0.148646
1406.32	0.147533
1407.51	0.148605
1408.69	0.143942
1409.88	0.137611
1411.06	0.132494
1412.25	0.133622
1413.43	0.130804
1414.62	0.127292
1415.8	0.129366
1416.99	0.131194
1418.17	0.133484
1419.36	0.140841
1420.54	0.137155
1421.73	0.140487
1422.91	0.140269
1424.1	0.142489
1425.28	0.157355
1426.47	0.171803
1427.65	0.17692
1428.84	0.182776
1430.02	0.189072
1431.21	0.201169
1432.39	0.205922
1433.58	0.20728
1434.76	0.21144
1435.95	0.216629
1437.13	0.223945
1438.32	0.238388
1439.5	0.248906
1440.69	0.266226
1441.87	0.28164
1443.06	0.294073
1444.24	0.314569
1445.43	0.324531
1446.61	0.342725
1447.8	0.364687
1448.98	0.373669
1450.17	0.382394
1451.35	0.402858
1452.54	0.417353
1453.72	0.429589
1454.91	0.435112
1456.09	0.442697
1457.28	0.455264
1458.46	0.461224
1459.65	0.45463
1460.83	0.443747
1462.02	0.435531
1463.2	0.424497
1464.39	0.405908
1465.57	0.392797
1466.76	0.382798
1467.94	0.367513
1469.13	0.348324
1470.31	0.328615
1471.5	0.298171
1472.68	0.270054
1473.87	0.245127
1475.05	0.215382
1476.24	0.191803
1477.42	0.178258
1478.61	0.164342
1479.79	0.149799
1480.98	0.131106
1482.16	0.122596
1483.35	0.115762
1484.53	0.108717
1485.72	0.103764
1486.9	0.098617
1488.09	0.10062
1489.27	0.102369
1490.46	0.100169
1491.64	0.0954322
1492.83	0.0964908
1494.01	0.0968444
1495.2	0.0940967
1496.38	0.0915322
1497.57	0.0959931
1498.75	0.10214
1499.94	0.0975668
1501.12	0.0895149
1502.31	0.0788421
1503.49	0.0756184
1504.68	0.0736579
1505.86	0.0686049
1507.05	0.0693906
1508.23	0.0771456
1509.42	0.0730957
1510.6	0.0613673
1511.79	0.0628601
1512.97	0.0582806
1514.16	0.0574668
1515.34	0.0509643
1516.53	0.0476847
1517.71	0.0475375
1518.9	0.046291
1520.08	0.0454603
1521.27	0.0352068
1522.45	0.0309459
1523.64	0.023577
1524.82	0.0147978
1526.01	0.0121265
1527.19	0.0122318
1528.38	0.0152967
1529.56	0.00871569
1530.75	0.00683082
1531.93	0.00596293
1533.12	0.00335716
1534.3	0.00408233
1535.49	0.00428383
1536.67	0.00268441
1537.86	0.00716353
1539.04	0.0118939
1540.23	0.0103963
1541.41	0.00994928
1542.6	0.0119455
1543.78	0.0148835
1544.97	0.0134825
1546.15	0.0171108
1547.34	0.016552
1548.52	0.00796213
1549.71	0.00949841
1550.89	0.011327
1552.08	0.012119
1553.26	0.0105074
1554.45	0.0104067
1555.63	0.0110744
1556.82	0.0162454
1558	0.0165049
1559.19	0.0127088
1560.37	0.0109414
1561.56	0.007286
1562.74	0.00446761
1563.93	0.00415446
1565.11	0.0134977
1566.3	0.0101888
1567.48	0.00840674
1568.67	0.0127118
1569.85	0.0118814
1571.04	0.0103038
1572.22	0.0069272
1573.41	0.00758453
1574.59	0.00944729
1575.78	0.0121548
1576.96	0.0173801
1578.15	0.0204989
1579.33	0.027221
1580.52	0.0348243
1581.7	0.0335072
1582.89	0.0358507
1584.07	0.039459
1585.26	0.0412053
1586.44	0.0475261
1587.63	0.0513382
1588.81	0.0522643
1590	0.0490301
1591.18	0.0499975
1592.37	0.0552444
1593.55	0.0516886
1594.74	0.0492843
1595.92	0.0501418
1597.11	0.043457
1598.29	0.047725
1599.48	0.0428422
1600.66	0.038959
1601.85	0.0365657
1603.03	0.0322815
1604.22	0.0337765
1605.4	0.0386249
1606.59	0.0414219
1607.77	0.040712
1608.96	0.0368312
1610.14	0.0400531
1611.33	0.0405701
1612.51	0.0414115
1613.7	0.0455341
1614.88	0.0408753
1616.07	0.0454809
1617.25	0.0527953
1618.44	0.0585577
1619.62	0.0624242
1620.81	0.0630878
1621.99	0.0635015
1623.18	0.0644836
1624.36	0.0697213
1625.55	0.0753975
1626.73	0.0747415
1627.92	0.081417
1629.1	0.0721884
1630.29	0.0682116
1631.47	0.0727857
1632.66	0.0760838
1633.84	0.068852
1635.03	0.0709647
1636.21	0.0730058
1637.4	0.0726324
1638.58	0.0672761
1639.77	0.0687485
1640.95	0.06469
1642.14	0.0661918
1643.32	0.0639511
1644.51	0.061488
1645.69	0.0704814
1646.88	0.072459
1648.06	0.0746589
1649.25	0.0730258
1650.43	0.0746664
1651.62	0.0749517
1652.8	0.0749003
1653.99	0.0784105
1655.17	0.0866172
1656.36	0.0908661
1657.54	0.0942901
1658.73	0.0918577
1659.91	0.0985353
1661.1	0.104759
1662.28	0.107494
1663.47	0.10995
1664.65	0.110695
1665.84	0.108906
1667.02	0.113303
1668.21	0.109106
1669.39	0.108565
1670.58	0.110546
1671.76	0.106942
1672.95	0.10258
1674.13	0.106174
1675.32	0.106517
1676.5	0.106719
1677.69	0.110556
1678.87	0.110774
1680.06	0.111633
1681.24	0.116518
1682.43	0.11491
1683.61	0.114539
1684.8	0.118685
1685.98	0.116844
1687.17	0.114896
1688.35	0.113747
1689.54	0.112985
1690.72	0.109306
1691.91	0.119724
1693.09	0.127155
1694.28	0.12719
1695.46	0.127137
1696.65	0.132998
1697.83	0.124722
1699.02	0.121487
1700.2	0.118552
1701.39	0.118243
1702.57	0.119454
1703.76	0.123875
1704.94	0.125086
1706.13	0.124661
1707.31	0.122079
1708.5	0.111739
1709.68	0.102774
1710.87	0.0975052
1712.05	0.092689
1713.24	0.0823545
1714.42	0.089692
1715.61	0.0965589
1716.79	0.10127
1717.98	0.105826
1719.16	0.108167
1720.35	0.10516
1721.53	0.106833
1722.72	0.109343
1723.9	0.109176
1725.09	0.111397
1726.27	0.116089
1727.46	0.121301
1728.64	0.12116
1729.83	0.117859
1731.01	0.116158
1732.2	0.120357
1733.38	0.114112
1734.57	0.110659
1735.75	0.109332
1736.94	0.108913
1738.12	0.113966
1739.31	0.118389
1740.49	0.118247
1741.68	0.114639
1742.86	0.110995
1744.05	0.109412
1745.23	0.114377
1746.42	0.120823
1747.6	0.118863
1748.79	0.118729
1749.97	0.122975
1751.16	0.121165
1752.34	0.120016
1753.53	0.121738
1754.71	0.112405
1755.9	0.0992699
1757.08	0.101109
1758.27	0.0996619
1759.45	0.0971617
1760.64	0.0919896
1761.82	0.0907256
1763.01	0.0918251
1764.19	0.0899659
1765.38	0.0830773
1766.56	0.0769077
1767.75	0.0690263
1768.93	0.0654583
1770.12	0.0629879
1771.3	0.0671667
1772.49	0.0715482
1773.67	0.0705039
1774.86	0.0683188
1776.04	0.0674747
1777.23	0.0661464
1778.41	0.0570137
1779.6	0.0485435
1780.78	0.0437687
1781.97	0.041839
1783.15	0.0403031
1784.34	0.0422647
1785.52	0.035552
1786.71	0.0281326
1787.89	0.0217635
1789.08	0.0148314
1790.26	0.0146789
1791.45	0.00812569
1792.63	0.00724211
1793.82	0.00570052
1795	0.00467355
